Fri, Oct 20, 2017	12:01 PM
 Notes: GUA
 waiting time: 50.000
 time(s)	 temp (K)	 MS1=1.971	 MS2=14.708	 MS3=27.883	 MS4=125.586	 MS5=109.505	 MS6=125.586	 MS7=109.505	 MS8=125.586
0.000	98.500	4782.996	951.294	16388.089	151.538
0.984	98.500	4806.368	967.673	16487.370	154.306
1.842	98.500	4828.996	963.218	16640.602	155.183
2.739	98.500	4849.959	957.806	16573.455	155.481
3.646	98.500	4911.541	986.521	16786.129	157.789
4.557	98.500	4826.319	986.670	16784.664	160.850
5.432	98.500	4831.097	986.826	16765.215	158.634
6.329	98.500	4928.165	983.859	8536.781	141.185
7.219	98.500	4740.783	955.115	16065.258	150.112
8.106	98.500	4853.692	997.189	17341.629	160.282
8.968	98.700	4870.959	1053.349	20523.143	169.195
9.833	99.200	5052.913	1116.038	23836.925	172.926
10.713	100.000	5131.571	1209.901	25730.898	174.424
11.599	101.500	5194.117	1304.077	27573.188	178.142
12.487	103.600	5227.293	1489.338	30003.977	185.790
13.351	106.300	5304.091	1592.399	29703.104	182.542
14.252	109.700	5329.353	1627.259	27713.098	180.660
15.140	113.300	5294.470	1718.404	26660.163	184.384
16.033	117.100	5248.768	1798.176	25944.209	180.145
16.928	120.900	5215.501	1810.960	25474.017	181.568
17.792	124.600	5283.042	1862.022	25415.353	183.671
18.658	128.100	5285.701	1853.050	25363.949	188.939
19.524	131.500	5206.684	1959.985	25683.723	190.210
20.387	134.900	5258.463	2005.984	25916.074	187.892
21.251	137.800	5399.733	2028.549	25999.064	196.851
22.154	141.500	5405.109	2070.576	25915.717	201.711
23.038	144.700	5344.807	2104.256	25802.821	202.050
23.964	147.900	5358.006	2126.856	25540.922	211.892
24.849	151.100	5392.040	2073.911	25272.335	213.709
25.734	154.200	5437.003	2057.925	24964.024	223.423
26.645	157.600	5419.682	2073.984	24702.099	232.074
27.540	160.500	5317.201	2171.335	24597.940	249.899
28.442	163.500	5307.501	2330.745	24505.830	263.461
29.307	166.300	5419.898	2534.016	24505.270	266.046
30.173	169.200	5461.173	2729.218	24435.958	285.284
31.053	172.000	5335.747	2686.710	24251.420	294.878
31.919	174.500	5349.748	2566.694	24043.969	305.159
32.785	177.200	5374.804	2403.769	23795.570	336.904
33.673	180.000	5350.354	2232.917	23620.660	417.967
34.536	182.800	5273.997	2208.282	23668.816	543.130
35.431	185.500	5317.642	2216.640	23950.852	797.624
36.295	188.200	5378.942	2272.971	24460.145	1231.640
37.161	190.900	5401.329	2490.626	25237.004	1954.414
38.025	193.600	5365.550	2808.058	26393.563	2930.434
38.919	196.300	5473.745	3204.387	27497.317	3358.210
39.782	199.000	5583.769	3048.080	26285.125	2124.372
40.647	201.700	5507.611	2597.087	24930.082	1452.141
41.507	204.400	5414.057	2420.185	24402.334	1263.405
42.374	207.000	5427.273	2325.374	24184.948	1189.399
43.232	209.400	5488.854	2263.030	23980.694	1188.011
44.098	212.000	5451.725	2261.779	23949.120	1189.762
44.985	214.700	5391.343	2279.139	23862.958	1199.871
45.843	217.300	5404.069	2224.579	23900.327	1182.347
46.719	220.000	5498.693	2215.992	23724.589	1162.532
47.618	222.600	5481.136	2186.919	23582.807	1126.727
48.496	225.300	5416.088	2160.431	23443.483	1054.691
49.397	227.900	5425.256	2103.445	23235.930	940.655
50.278	230.600	5511.697	2041.285	23007.807	841.708
51.142	233.200	5493.555	2009.357	22795.160	775.338
52.009	235.900	5394.373	1967.751	22610.596	703.601
52.900	238.500	5390.820	1922.927	22507.927	644.200
53.766	241.200	5483.993	1876.249	22385.454	597.989
54.635	243.800	5458.639	1865.215	22325.210	577.304
55.500	246.400	5412.162	1827.460	22188.726	557.161
56.365	249.100	5443.133	1836.926	22203.284	537.886
57.229	251.700	5570.235	1819.209	22060.470	509.087
58.095	254.000	5521.360	1825.465	22013.078	505.096
58.986	257.000	5407.176	1789.759	21912.689	498.572
59.846	259.300	5549.113	1800.943	21959.840	377.214
60.697	262.000	5272.192	1811.770	18345.083	457.031
61.549	264.600	5357.214	1788.262	21554.884	472.061
62.448	267.200	5479.593	1805.395	21746.759	463.893
63.341	269.800	5565.541	1805.268	21822.388	468.544
64.231	272.500	5680.171	1831.980	21840.690	462.902
65.095	275.100	5661.875	1841.673	21772.627	471.884
65.959	277.800	5601.656	1857.962	21770.385	464.273
66.847	280.400	5699.137	1846.776	21739.716	460.108
67.710	283.100	5788.786	1865.146	21743.205	460.698
68.574	285.700	5785.188	1925.660	21780.192	463.689
69.437	288.400	5869.738	1949.363	21760.718	459.419
70.306	290.700	6052.302	1977.921	21777.084	457.489
71.174	293.300	6160.757	2022.688	21810.428	456.842
72.039	296.000	6167.970	2034.267	21660.979	451.878
72.902	298.600	6352.941	2105.432	21650.637	449.467
73.790	301.300	6648.784	2166.146	21720.687	454.286
74.650	303.900	6915.949	2224.893	21651.592	457.991
75.516	306.500	7008.325	2262.029	21681.357	461.427
76.383	309.100	7222.569	2300.709	21672.798	459.723
77.249	311.800	7656.402	2347.892	21644.052	451.811
78.157	314.400	7976.411	2416.752	21592.724	460.936
79.031	317.000	8150.859	2488.547	21650.089	460.988
79.920	319.700	8447.623	2555.493	21720.178	454.844
80.811	322.300	8852.872	2594.809	21689.623	456.692
81.678	324.900	9076.020	2649.771	21845.721	460.946
82.569	327.600	9178.704	2717.226	21770.512	460.557
83.461	330.200	9194.394	2709.552	21718.611	457.910
84.326	332.900	9360.900	1987.693	21064.276	433.708
85.188	335.500	9300.978	2655.971	21665.411	442.416
86.056	338.100	9174.879	2656.624	21859.489	442.371
86.921	340.500	9077.820	2602.995	21985.287	441.359
87.779	343.100	9140.474	2555.123	22119.313	441.892
88.659	345.700	9055.865	2495.991	22270.265	449.532
89.523	348.400	8810.204	2431.942	22282.874	448.203
90.424	351.000	8740.797	2296.056	22203.513	445.777
91.290	353.600	8956.988	2245.796	22325.962	444.661
92.197	356.300	9033.743	2211.477	22444.576	448.942
93.062	358.900	9004.700	2182.027	22449.429	455.254
93.929	361.600	9104.557	2129.772	22412.901	445.644
94.795	364.200	9316.739	2080.528	22473.896	449.216
95.662	366.800	9440.294	2084.843	22496.452	460.177
96.561	369.500	9401.899	2024.043	22507.431	456.072
97.442	372.100	9507.401	2042.568	22622.887	453.321
98.349	374.800	9652.283	2021.260	22654.600	449.703
99.214	377.400	9843.026	1996.895	22808.189	457.507
100.109	380.100	9854.373	1995.558	22845.889	463.595
100.975	382.700	9786.383	1991.141	23050.475	463.343
101.841	385.300	9975.838	2020.002	23350.150	459.938
102.706	388.000	10114.101	2023.787	23613.120	465.725
103.572	390.600	10071.819	1992.405	23706.567	462.877
104.453	393.200	10181.499	1988.995	24125.889	466.047
105.318	395.800	10302.096	1988.958	24535.124	466.496
106.184	398.500	10297.635	1984.685	25082.397	466.435
107.052	400.800	10250.741	1992.703	25591.485	473.825
107.919	403.400	10290.488	2019.326	26374.255	476.809
108.784	406.100	10341.960	2014.528	26944.122	472.276
109.672	408.700	10284.111	2014.199	27691.420	480.611
110.584	411.700	10139.619	2001.897	28285.066	482.879
111.474	414.300	9974.731	2008.079	28978.617	482.190
112.339	416.900	9840.146	2011.130	29838.327	481.511
113.221	419.600	9807.166	2033.636	30592.707	485.145
114.116	422.200	9632.663	2036.755	31095.440	486.694
114.982	424.800	9285.056	2030.229	31587.334	493.853
115.850	427.100	9152.925	2014.598	32165.849	486.987
116.715	429.800	9132.115	2022.601	32633.162	495.071
117.581	432.400	8873.686	2020.621	32853.388	494.095
118.480	435.100	8778.948	2065.472	33437.342	500.634
119.347	437.700	8774.407	2057.362	33686.594	492.000
120.212	440.400	8790.182	2063.980	34027.753	491.184
121.076	443.000	8626.538	2067.868	34249.698	505.196
121.943	445.600	8573.362	2057.744	34390.639	498.201
122.810	448.300	8694.542	2053.751	34664.715	498.113
123.676	450.900	8596.993	2049.353	34754.813	503.802
124.541	453.200	8428.899	2063.759	34978.490	510.548
125.409	455.900	8372.664	2061.558	35116.439	508.184
126.296	458.500	8447.617	2067.026	35114.910	509.860
127.181	461.200	8463.732	2099.449	35291.527	514.836
128.074	464.100	8270.214	2074.004	32984.816	507.845
128.961	466.800	8198.039	2094.077	35219.362	512.604
129.825	469.400	8395.374	2134.025	35573.321	509.912
130.708	472.100	8363.533	2116.874	35420.394	512.559
131.572	474.400	8261.163	2133.750	35322.655	526.336
132.437	477.000	8263.809	2152.726	35230.876	522.770
133.303	479.600	8463.964	2161.007	35075.058	522.115
134.167	482.300	8464.309	2150.230	34719.265	527.815
135.035	484.900	8400.270	2162.674	34278.164	525.995
135.901	487.500	8414.521	2177.380	33919.251	520.630
136.766	490.200	8634.776	2181.588	33302.157	526.330
137.636	492.800	8693.262	2200.159	32583.388	528.557
138.504	495.100	8557.759	2222.143	31771.834	533.011
139.373	497.800	8603.010	2215.820	31028.472	530.211
140.239	500.400	8772.637	2231.399	30102.583	533.820
141.106	503.000	8734.936	2264.669	29137.644	533.899
142.020	505.700	8559.743	2268.144	28100.986	536.130
142.885	508.300	8595.981	2266.294	27345.613	525.153
143.750	511.000	8723.589	2274.772	26382.151	537.582
144.617	513.600	8662.976	2282.328	25620.537	544.832
145.484	516.200	8541.731	2322.766	24974.863	536.357
146.348	518.900	8556.376	2313.557	24443.829	534.633
147.212	521.500	8649.981	2330.175	24178.185	532.870
148.107	524.100	8587.543	2352.102	23746.700	545.461
148.971	526.800	8471.454	2367.690	23532.065	541.997
149.835	529.100	8612.594	2371.229	23534.001	544.254
150.700	531.700	8656.557	2366.401	23358.085	542.802
151.568	534.300	8551.782	2398.243	23244.171	551.144
152.434	537.000	8561.740	2433.886	23232.338	551.791
153.345	539.600	8576.300	2431.226	23081.946	550.552
154.210	542.300	8533.394	2422.200	23007.999	555.012
155.075	544.900	8365.415	2433.433	22911.252	562.225
155.942	547.600	8318.064	2447.017	22877.030	559.720
156.837	550.200	8316.869	2434.079	22856.855	560.519
157.705	552.800	8182.780	2441.248	22851.875	567.935
158.571	555.500	8026.330	2470.162	22714.156	573.745
159.435	558.100	7941.493	2477.119	22763.764	567.347
160.303	560.800	8026.418	2485.006	22868.725	567.095
161.176	563.400	7958.893	2491.407	22859.835	578.712
162.042	565.700	7737.758	2472.513	22745.679	579.858
162.908	568.300	7686.461	2480.646	22799.477	574.851
163.803	571.000	7784.924	2486.267	22886.149	573.713
164.670	573.600	7767.440	2495.019	22801.757	584.624
165.539	576.200	7659.367	2513.187	22774.794	591.128
166.406	578.900	7620.725	2522.246	22888.429	581.304
167.273	581.500	7807.722	2519.341	22625.803	573.916
168.158	584.100	7817.158	2521.078	22857.492	587.057
169.024	586.800	7659.393	2521.981	22896.771	590.943
169.891	589.400	7674.874	2518.266	22901.267	587.685
170.758	592.100	7801.516	2533.825	22896.325	593.786
171.628	594.700	7851.597	2536.972	22784.958	598.246
172.492	597.000	7691.832	2530.807	22846.831	603.421
173.353	599.700	7767.388	2502.302	22759.791	598.896
174.220	602.300	7797.171	2484.288	22708.679	594.782
175.097	604.900	7784.018	2536.245	22795.198	600.285
175.962	607.600	7734.999	2505.668	22709.049	604.807
176.827	610.200	7870.038	2503.337	22873.960	602.137
177.695	612.800	8022.856	2535.768	22987.506	608.882
178.560	615.500	7895.493	2556.313	22892.186	611.121
179.429	617.800	7905.949	2551.516	22939.782	607.462
180.296	620.400	8060.484	2525.980	22928.243	612.618
181.163	623.100	8063.053	2509.394	22870.700	614.196
182.068	625.700	7902.870	2519.141	22872.967	621.057
182.935	628.300	7933.719	2546.033	22893.332	621.703
183.803	631.000	8078.608	2541.324	23027.791	621.232
184.670	633.600	8102.028	2541.177	22952.684	625.111
185.535	636.300	7965.309	2556.293	23007.069	633.883
186.440	638.900	7930.657	2561.487	23075.744	619.596
187.310	641.500	8095.194	2541.735	23075.591	619.902
188.208	644.200	8116.767	2557.781	23118.016	629.070
189.076	646.800	8003.241	2557.820	23035.165	622.565
189.979	649.400	8012.317	2567.952	23069.758	634.471
190.847	652.100	8103.177	2576.862	23311.126	638.256
191.715	654.700	8173.515	2558.717	23253.162	635.405
192.580	657.300	8050.996	2574.384	23188.181	641.861
193.445	660.000	8057.229	2596.985	23280.673	638.807
194.340	662.600	8163.669	2555.084	23288.812	639.222
195.215	665.300	8267.729	2579.927	23330.931	638.156
196.120	667.900	8194.648	2554.588	23202.828	647.259
196.986	670.500	8049.330	2566.094	23172.566	646.274
197.851	673.200	8066.376	2540.045	23272.140	641.842
198.746	675.800	8201.362	2574.687	23374.681	648.134
199.611	678.400	8115.014	2603.401	23322.398	646.955
200.480	681.100	7995.636	2609.593	23406.509	655.340
201.345	683.700	8000.961	2589.882	23383.354	655.852
202.210	686.300	8059.664	2610.791	23588.704	658.715
203.076	688.700	7859.003	2627.551	23442.324	662.651
203.943	691.300	7791.385	2611.988	23457.149	660.136
204.810	693.900	7786.473	2615.855	23469.758	662.643
205.697	696.600	7716.887	2621.083	23561.614	667.015
206.590	699.200	7537.369	2619.140	23454.347	673.659
207.457	701.900	7419.754	2626.738	23452.195	672.487
208.347	704.500	7305.190	2620.690	23579.878	669.378
209.211	707.100	7353.219	2643.047	23527.735	661.370
210.075	709.800	7107.835	2614.891	23499.218	672.056
210.941	712.400	6992.890	2629.680	23563.028	679.464
211.808	715.100	7028.260	2643.442	23612.547	676.599
212.676	717.700	6961.025	2638.591	23563.792	680.521
213.543	720.400	6762.108	2657.238	23643.191	688.043
214.428	723.000	6675.105	2659.521	23602.269	682.765
215.294	725.600	6706.707	2636.962	23667.224	683.909
216.163	727.900	6660.451	2633.509	23681.311	694.945
217.029	730.500	6506.750	2655.980	23594.932	691.223
217.896	733.100	6430.018	2663.372	23704.084	690.481
218.768	735.800	6549.148	2658.413	23678.292	698.687
219.637	738.400	6540.128	2650.670	23731.301	701.777
220.506	741.000	6396.028	2671.583	23784.145	700.708
221.370	743.700	6360.193	2646.842	23853.075	694.341
222.237	746.300	6533.244	2676.293	23895.563	703.405
223.122	749.000	6507.756	2675.364	23959.207	709.994
223.987	751.600	6417.433	2702.825	23992.335	709.695
224.852	753.900	6485.491	2711.120	24167.538	699.044
225.720	756.500	6549.540	2700.458	24207.021	709.067
226.588	759.200	6488.998	2739.205	24267.914	718.081
227.454	761.800	6427.348	2740.619	24280.968	716.951
228.321	764.400	6531.757	2707.532	24282.713	717.664
229.212	767.100	6516.809	2709.888	24340.155	723.450
230.079	769.700	6407.826	2741.341	24245.421	730.676
230.947	772.300	6364.370	2720.764	24364.583	726.842
231.812	775.000	6478.824	2715.059	24540.028	725.116
232.679	777.600	6490.842	2715.306	24588.210	724.002
233.545	779.900	6361.419	2720.971	24411.492	727.675
234.441	782.900	6375.950	2710.441	24473.887	725.646
235.309	785.200	6491.958	2691.921	24618.217	726.945
236.172	787.800	6504.315	2709.933	24665.151	741.233
237.095	790.800	6433.914	2713.023	24614.383	740.231
237.961	793.400	6393.100	2415.055	24699.819	727.595
238.827	795.800	6489.516	2731.372	25030.674	734.870
