Thu, Oct 19, 2017	10:35 AM
 Notes: GUA_top chamber_7.8E-9_60 sec_101917
 waiting time: 50.000
 time(s)	 temp (K)	 MS1=1.971	 MS2=14.708	 MS3=27.883	 MS4=125.586	 MS5=109.505	 MS6=125.586	 MS7=109.505	 MS8=125.586
0.000	98.300	4096.284	575.668	13219.948	12.413
0.919	98.300	4196.554	574.122	13294.495	12.620
1.815	98.400	4182.555	573.870	13303.105	12.781
2.691	98.400	4128.913	589.095	13327.864	13.087
3.571	98.400	4101.875	566.853	13221.438	12.791
4.458	98.400	4099.152	573.471	13248.580	12.688
5.342	98.400	4162.810	567.793	13205.301	12.687
6.217	98.400	4105.631	539.917	12997.442	12.950
7.119	98.400	4049.759	536.682	12971.346	12.957
8.029	98.400	4040.636	523.197	12976.988	12.462
8.892	98.400	4157.397	556.246	13462.106	13.135
9.807	98.400	4178.774	591.128	15698.436	13.274
10.713	98.600	4189.859	594.913	20241.833	13.239
11.592	99.100	4187.305	638.668	20617.278	13.809
12.470	100.000	4214.107	708.274	19733.470	13.292
13.337	101.400	4293.951	781.471	20804.351	13.229
14.222	103.600	4310.043	857.806	21716.523	13.429
15.088	106.300	4292.607	919.439	21484.910	13.186
15.993	109.700	4239.495	983.421	20775.388	13.833
16.887	113.300	4286.573	1033.731	19862.580	13.435
17.795	117.100	4259.439	1067.257	19068.538	13.679
18.680	120.900	4208.512	1036.669	18256.335	13.655
19.578	124.600	4220.106	1071.944	18143.910	14.286
20.445	128.200	4231.479	1090.495	18076.509	14.165
21.311	131.600	4254.116	1082.055	17828.288	14.249
22.175	135.000	4199.731	1115.242	17609.680	13.818
23.039	138.400	4168.460	1047.578	17194.179	14.321
23.904	141.700	4210.190	1033.800	17059.071	14.149
24.808	144.900	4271.573	1071.817	16910.755	13.542
25.698	148.200	4213.989	1044.012	16502.934	14.775
26.573	151.300	4194.557	1051.451	16229.482	13.577
27.464	154.400	4201.362	1053.724	16115.682	14.207
28.328	157.400	4222.935	1022.023	16004.849	14.044
29.193	160.400	4177.132	1034.100	15707.351	14.368
30.058	163.400	4141.968	986.201	15656.520	14.979
30.963	166.300	4158.215	1009.440	15735.155	14.826
31.830	169.100	4228.171	941.970	15552.119	15.230
32.733	172.000	4196.576	935.148	15307.248	14.828
33.637	174.800	4119.853	920.860	15211.903	15.070
34.546	177.900	4110.956	918.591	15084.157	15.280
35.444	180.600	4114.119	917.574	15128.225	16.440
36.346	183.400	4140.030	972.803	15035.605	16.993
37.212	186.100	4137.173	1033.569	15042.853	19.005
38.116	188.800	4095.390	1028.509	14876.209	21.473
38.984	191.500	4085.389	1001.925	14904.025	23.766
39.887	194.200	4151.375	945.696	14825.543	26.334
40.753	196.900	4172.495	916.049	14812.960	29.987
41.617	199.600	4115.632	896.940	14727.090	36.134
42.482	202.300	4074.953	829.745	14662.262	44.809
43.373	204.900	4189.563	842.245	14765.376	60.692
44.240	207.600	4197.638	848.045	14711.896	79.628
45.108	210.300	4141.685	846.622	14692.231	101.787
45.971	212.600	4157.592	838.229	14718.875	125.263
46.837	215.300	4249.890	827.776	14772.407	150.348
47.737	217.900	4329.781	876.015	14697.631	174.950
48.599	220.600	4279.811	883.606	14771.311	193.399
49.495	223.200	4334.398	901.590	14911.336	196.595
50.371	225.900	4429.907	873.518	14810.693	196.327
51.264	228.800	4452.348	850.224	14677.953	176.923
52.130	231.100	4439.474	849.013	14602.859	150.169
52.995	233.800	4426.402	823.038	14620.079	130.896
53.860	236.400	4527.092	778.668	14500.611	106.660
54.725	239.100	4528.308	780.004	14498.726	94.926
55.592	241.700	4496.947	790.638	14579.106	84.092
56.482	244.300	4494.923	763.519	14644.418	71.141
57.382	247.000	4559.246	762.807	14597.382	63.263
58.273	249.600	4565.002	739.654	14417.315	60.194
59.160	252.300	4496.123	728.070	14380.977	56.122
60.025	254.900	4521.833	740.395	14445.921	52.269
60.920	257.600	4597.076	739.906	14517.640	49.948
61.824	260.500	4651.385	727.982	14459.039	48.342
62.726	263.200	4661.168	728.880	14378.710	49.317
63.616	265.800	4604.468	738.845	14344.895	50.314
64.480	268.400	4634.293	731.853	14382.162	48.672
65.346	271.100	4718.789	714.371	14353.148	47.590
66.214	273.400	4750.820	747.274	14275.443	49.852
67.077	276.000	4726.180	770.668	14315.372	50.943
67.971	278.700	4789.856	758.440	14180.659	51.644
68.870	281.600	4972.108	779.027	14284.040	51.070
69.769	284.300	5061.623	799.797	14179.194	50.956
70.652	286.900	5109.691	834.784	14168.050	51.616
71.516	289.600	5213.749	847.277	14220.065	51.399
72.382	292.200	5391.253	847.041	14197.662	50.443
73.248	294.500	5478.048	877.238	14160.917	51.002
74.113	297.200	5522.420	893.974	14122.045	53.586
74.995	299.800	5731.210	918.564	14265.407	52.363
75.880	302.400	5966.229	974.905	14314.557	52.764
76.764	305.100	6193.846	983.815	14220.575	52.941
77.630	307.700	6263.450	992.076	14197.369	55.388
78.495	310.300	6559.753	1065.805	14365.299	55.461
79.442	313.300	6895.396	1065.909	14190.988	53.828
80.308	316.000	7324.928	1128.178	14361.860	55.254
81.187	318.600	7587.986	1164.923	14275.634	56.010
82.067	321.200	7943.445	1228.721	14340.106	54.926
82.965	323.900	8376.416	1276.738	14420.511	52.534
83.861	326.500	8775.830	1302.028	14475.011	51.920
84.754	329.200	9003.673	1399.151	14465.293	52.187
85.652	331.800	8875.407	1378.100	14385.639	47.150
86.523	334.400	8848.016	1379.795	14324.530	45.078
87.408	337.100	8695.641	1356.140	14391.485	41.060
88.273	339.700	8470.016	1354.419	14419.314	40.478
89.139	342.300	8041.345	1331.286	14361.733	38.077
90.006	345.000	7651.636	1273.684	14472.884	36.267
90.912	347.600	7502.859	1165.055	14455.537	35.056
91.779	350.300	7315.955	1105.978	14419.709	35.536
92.677	352.900	7046.296	1039.028	14386.110	35.691
93.584	355.500	7009.552	986.726	14333.394	36.322
94.449	358.200	7148.486	958.410	14454.276	35.854
95.316	360.800	7336.224	916.921	14473.610	37.539
96.211	363.400	7538.188	893.802	14435.056	36.523
97.074	366.100	7720.854	869.250	14427.376	36.701
97.982	368.700	8054.710	843.517	14511.233	34.922
98.847	371.400	8455.081	812.840	14553.123	35.741
99.713	374.000	8678.694	808.303	14499.223	36.105
100.613	376.600	8643.717	765.385	14441.055	36.416
101.481	379.300	8687.519	739.110	14604.464	36.113
102.347	381.900	8984.299	755.515	14787.385	35.681
103.237	384.600	9085.690	765.622	14907.655	38.139
104.101	387.200	9023.254	749.970	15084.246	36.502
104.967	389.800	9104.994	738.328	15479.458	34.258
105.834	392.500	9380.686	751.676	15825.686	36.375
106.737	395.100	9376.142	719.609	16037.085	36.431
107.604	397.700	9282.286	733.530	16540.048	36.888
108.466	400.400	9222.772	741.339	17221.486	36.589
109.370	403.000	9251.784	725.082	17782.055	35.670
110.266	405.700	9100.742	732.663	18395.761	38.707
111.133	408.300	8756.176	746.500	19027.629	36.902
111.998	410.900	8482.372	738.381	19783.919	36.733
112.866	413.600	8357.574	734.054	20344.909	37.518
113.731	415.900	8044.850	729.272	20721.640	37.297
114.614	418.500	7578.942	717.234	21146.541	37.912
115.515	421.500	7283.127	717.719	21662.354	37.384
116.382	424.100	7124.971	709.046	22156.873	37.537
117.267	426.700	6949.121	713.381	22345.971	39.511
118.130	429.000	6649.109	711.979	22631.063	38.730
119.023	432.000	6563.258	732.906	23042.311	38.553
119.887	434.300	6590.910	720.818	23393.034	39.106
120.752	436.900	6529.591	729.327	23575.586	39.285
121.653	439.600	6368.437	731.630	23951.629	39.341
122.533	442.200	6334.575	742.312	24022.011	40.904
123.428	445.200	6384.279	723.608	24330.042	39.819
124.296	447.500	6356.770	725.846	24412.714	41.251
125.187	450.500	6239.160	724.066	24499.755	39.727
126.099	453.100	6196.743	720.484	24502.137	40.294
126.981	455.800	6146.951	734.988	24793.814	39.585
127.847	458.400	6249.221	721.829	24824.777	40.918
128.713	461.100	6204.840	734.769	24864.896	41.838
129.580	463.700	6127.477	748.138	24946.320	41.502
130.445	466.000	6191.045	746.221	25112.748	41.875
131.310	468.600	6236.061	740.259	25077.964	41.075
132.178	471.300	6167.357	745.244	24901.603	42.710
133.043	473.900	6171.260	756.001	24901.628	43.346
133.908	476.600	6335.352	755.619	24904.838	43.714
134.772	479.200	6405.484	775.154	24753.924	41.951
135.637	481.900	6334.422	778.531	24420.917	43.202
136.503	484.200	6412.627	807.753	24393.342	43.166
137.368	486.800	6547.193	782.816	23815.795	43.165
138.264	489.400	6576.377	789.228	23284.354	44.028
139.130	492.000	6517.103	802.493	22653.721	43.286
140.029	494.700	6524.666	806.092	22211.232	43.925
140.894	497.300	6725.463	830.215	21701.799	44.823
141.761	500.000	6734.958	821.959	20747.177	46.624
142.626	502.600	6635.226	842.525	20040.852	45.838
143.491	505.300	6638.420	843.247	19376.735	44.681
144.356	507.900	6722.554	844.323	18746.969	43.891
145.222	510.500	6699.168	855.578	18001.555	45.828
146.130	513.100	6658.366	884.418	17472.954	47.684
147.025	515.800	6654.130	909.454	17080.379	45.697
147.891	518.500	6812.743	898.940	16734.482	47.363
148.756	521.100	6775.947	911.933	16423.369	48.485
149.620	523.700	6627.861	909.083	16106.945	48.746
150.486	526.400	6662.314	911.341	15993.781	48.290
151.415	529.000	6740.560	898.695	15778.204	46.922
152.318	531.700	6735.282	920.613	15741.281	49.229
153.183	534.300	6603.793	914.669	15402.632	50.535
154.050	536.900	6560.862	921.509	15310.140	48.777
154.955	539.600	6522.594	901.548	15283.750	50.306
155.823	542.200	6577.478	911.951	15281.521	50.496
156.688	544.800	6390.140	917.006	15151.138	51.496
157.589	547.500	6360.628	941.786	15162.461	51.724
158.456	550.100	6298.832	926.783	15104.140	51.389
159.322	552.700	6265.416	937.067	15162.015	52.730
160.188	555.400	6114.984	963.782	15093.391	52.589
161.055	558.000	5976.208	951.872	15022.500	52.470
161.918	560.600	5994.705	945.234	15076.044	55.648
162.817	563.300	5933.317	951.563	15075.318	53.438
163.683	565.900	5769.404	945.829	15011.967	55.811
164.547	568.200	5738.210	963.032	14995.970	54.178
165.427	570.800	5819.365	930.474	14989.512	55.573
166.327	573.800	5760.273	934.384	14923.843	55.161
167.190	576.100	5671.392	932.384	14908.407	55.240
168.057	578.800	5640.191	927.367	14869.178	56.645
168.917	581.400	5695.325	927.570	15020.322	58.291
169.779	584.100	5748.237	930.582	14959.110	56.050
170.645	586.700	5634.442	935.549	14880.437	57.371
171.542	589.300	5658.054	921.691	14832.472	58.275
172.408	592.000	5777.653	937.043	14918.621	59.231
173.277	594.600	5762.232	932.200	14948.195	61.126
174.142	597.200	5690.306	939.927	14857.040	60.127
175.008	599.900	5707.293	947.402	14982.584	59.716
175.873	602.200	5857.308	981.808	15060.276	60.978
176.739	604.800	5877.167	976.873	15025.939	62.899
177.603	607.500	5766.370	986.565	15057.410	64.277
178.471	610.100	5834.143	990.245	15144.146	62.079
179.337	612.700	5935.171	998.885	15247.043	64.772
180.200	615.400	5874.766	985.313	15095.951	65.585
181.064	618.000	5846.524	975.386	15077.610	64.730
181.961	620.700	5861.430	964.368	15136.007	64.960
182.827	623.300	5927.141	956.795	15146.897	65.249
183.693	625.600	5913.966	968.071	15038.624	66.859
184.560	628.200	5823.330	970.189	15072.898	66.382
185.427	630.900	5939.023	948.863	15059.015	67.292
186.328	633.500	5947.361	967.730	15182.635	68.349
187.221	636.500	5957.698	986.295	15140.707	67.905
188.086	638.800	5919.794	1002.232	15193.856	69.391
188.953	641.400	5940.404	991.019	15262.429	68.308
189.821	644.000	6008.902	1001.053	15266.492	71.622
190.687	646.700	5945.235	1008.567	15218.628	71.840
191.553	649.400	5904.237	989.193	15230.346	72.689
192.421	652.000	6034.751	996.696	15320.240	72.284
193.315	654.600	6034.541	1002.584	15392.888	71.879
194.179	657.300	5985.502	1002.735	15310.191	75.775
195.093	659.900	5955.500	1003.189	15326.022	76.583
195.958	662.500	6005.963	999.414	15375.554	75.503
196.823	665.200	6032.904	990.168	15356.144	76.266
197.687	667.800	5974.097	1001.651	15358.971	76.187
198.551	670.400	5943.415	998.597	15326.289	76.841
199.418	672.800	6081.521	1002.869	15489.736	76.420
200.303	675.400	6058.340	1003.836	15470.619	78.170
201.167	678.100	5941.389	1005.169	15412.184	79.317
202.032	680.700	5932.030	1034.853	15418.858	79.898
202.897	683.300	6006.204	1027.643	15525.653	83.525
203.762	685.900	5947.336	1015.859	15437.058	83.035
204.678	688.600	5825.648	1026.554	15413.993	82.239
205.581	691.200	5740.317	1043.873	15458.583	85.334
206.481	694.200	5659.598	1035.074	15533.384	84.511
207.347	696.500	5670.673	1023.422	15528.506	86.326
208.213	699.100	5567.223	1054.555	15500.397	88.206
209.078	701.800	5412.796	1066.447	15536.428	88.945
209.944	704.400	5394.953	1073.228	15680.617	89.248
210.809	707.100	5327.586	1080.233	15645.860	89.673
211.675	709.700	5124.971	1070.911	15562.589	89.480
212.543	712.300	5073.736	1100.356	15803.308	92.463
213.411	714.900	5103.035	1095.701	15750.260	91.105
214.275	717.200	4980.941	1066.395	15693.099	91.926
215.144	719.900	4813.166	1086.685	15659.908	93.405
216.012	722.500	4712.311	1054.546	15638.931	94.107
216.876	725.100	4742.234	1029.305	15557.940	93.934
217.743	727.800	4698.909	1061.010	15526.557	95.600
218.606	730.400	4588.545	1073.020	15581.872	96.640
219.471	733.100	4579.911	1062.767	15658.278	99.328
220.335	735.700	4622.290	1082.134	15693.863	97.778
221.199	738.000	4597.108	1090.105	15664.582	101.669
222.065	740.600	4566.675	1124.181	15836.499	98.678
222.931	743.200	4654.036	1120.600	15955.470	101.784
223.799	745.900	4656.638	1114.918	15932.506	102.161
224.663	748.500	4527.188	1108.126	15842.027	104.533
225.530	751.200	4553.139	1126.785	15982.764	104.755
226.396	753.800	4632.518	1113.728	15949.866	101.870
227.262	756.400	4613.963	1111.780	15984.980	105.381
228.127	758.700	4525.708	1121.903	15940.174	104.128
228.992	761.400	4495.124	1114.667	16002.837	106.408
229.852	764.000	4591.375	1111.319	16076.466	107.549
230.720	766.700	4589.201	1134.198	16020.859	111.609
231.587	769.300	4535.014	1146.823	16119.987	115.728
232.451	771.900	4580.885	1150.609	16255.095	110.961
233.317	774.600	4627.398	1157.293	16355.955	115.862
234.182	776.900	4559.851	1188.668	16362.858	117.840
235.062	779.500	4550.975	1184.692	16400.138	117.575
235.929	782.200	4600.097	1162.650	16484.045	116.514
236.797	784.800	4629.462	1172.767	16513.225	117.943
237.663	787.400	4569.589	1173.843	16454.357	120.512
238.557	790.000	4556.484	1178.669	16510.486	119.470
239.424	792.700	4641.180	1169.769	16666.431	118.738
240.287	795.300	4634.781	1168.667	16675.500	121.848
241.152	798.000	4583.495	1180.425	16633.062	122.498
242.019	800.600	4537.707	1176.959	16795.299	122.195
242.884	803.200	4646.849	1182.970	16880.391	125.128
243.748	805.500	4647.110	1191.175	16800.177	127.329
244.639	808.500	4572.903	1210.401	17005.501	128.548
