Thu, Oct 19, 2017	10:18 AM
 Notes: GUA_7.5E-9_60 sec_101917
 waiting time: 50.000
 time(s)	 temp (K)	 MS1=1.971	 MS2=14.708	 MS3=27.883	 MS4=125.586	 MS5=109.505	 MS6=125.586	 MS7=109.505	 MS8=125.586
0.000	98.000	3538.152	466.074	12287.194	9.119
1.058	98.000	3631.589	460.694	12392.206	9.244
1.967	98.000	3679.868	465.905	12446.553	8.575
2.913	98.100	3706.196	475.910	12451.214	8.615
3.842	98.100	3656.890	470.256	12337.911	9.252
4.735	98.100	3624.285	472.284	12376.286	8.952
5.614	98.100	3662.084	476.972	12473.529	9.103
6.513	98.100	3705.541	481.013	12509.840	8.599
7.413	98.100	3737.972	472.944	12425.614	8.841
8.312	98.200	3655.065	482.143	12535.415	8.966
9.196	98.200	3710.408	481.106	12688.635	9.276
10.106	98.200	3719.444	502.007	14792.085	9.301
10.986	98.400	3844.334	558.598	21961.011	9.234
11.892	98.800	3937.125	600.874	24948.842	9.220
12.792	99.700	3906.509	689.090	21226.284	9.188
13.659	100.800	3892.206	723.307	21877.295	9.636
14.544	102.900	3980.908	798.219	24540.219	9.310
15.445	105.400	4003.844	853.952	23978.962	9.752
16.374	108.500	3985.966	919.085	22133.450	10.073
17.262	112.100	3921.246	999.784	20623.455	8.801
18.168	116.000	3896.211	1059.926	19567.578	9.876
19.042	119.800	3948.228	1044.154	18716.452	9.766
19.934	124.100	3917.744	1096.788	18388.425	9.722
20.837	127.800	3923.077	1091.822	17787.736	9.598
21.726	131.300	3856.300	1056.768	17366.605	9.694
22.627	134.800	3857.331	1090.961	17362.249	9.511
23.489	138.200	3916.565	1072.874	16986.588	10.188
24.371	141.500	3909.075	1036.205	16443.136	9.907
25.255	144.800	3854.242	1046.176	16272.276	9.913
26.142	148.000	3861.598	983.033	15973.441	10.423
27.042	151.200	3892.674	927.967	15630.767	10.012
27.944	154.300	3889.539	923.214	15481.585	10.248
28.836	157.400	3856.488	898.973	15157.799	10.355
29.720	160.400	3841.613	890.708	14945.075	10.341
30.629	163.700	3834.044	893.555	14710.750	10.032
31.497	166.600	3845.227	872.589	14734.630	10.283
32.392	169.500	3842.951	852.463	14605.483	10.020
33.259	172.300	3764.925	799.956	14495.414	9.916
34.126	175.100	3753.919	775.152	14494.294	10.490
34.988	177.600	3813.522	763.341	14391.829	10.487
35.890	180.700	3833.088	727.069	14226.905	10.481
36.794	183.400	3772.141	725.397	14212.996	10.771
37.659	186.200	3725.926	710.225	14143.239	10.748
38.524	188.900	3811.354	697.956	14127.331	11.018
39.428	191.600	3802.218	682.214	14001.826	10.528
40.297	194.300	3729.217	671.576	13998.069	10.676
41.183	197.000	3723.925	657.325	13948.983	10.650
42.048	199.700	3794.457	651.455	13985.587	10.649
42.916	202.000	3781.303	629.054	13865.190	11.507
43.782	204.700	3711.751	639.842	13887.975	10.690
44.677	207.300	3746.579	653.341	13930.731	10.921
45.543	210.000	3786.442	622.388	13942.576	11.645
46.408	212.700	3783.612	620.306	13885.402	10.985
47.273	215.300	3725.165	613.675	13775.754	11.827
48.142	218.000	3724.917	606.438	13891.847	11.745
49.036	220.600	3807.616	605.306	13898.342	11.343
49.930	223.300	3783.892	599.310	13881.670	11.323
50.852	226.300	3760.281	582.294	13756.420	12.254
51.736	228.900	3724.582	597.156	13818.498	12.091
52.636	231.600	3710.397	593.506	13925.764	11.987
53.503	234.200	3801.766	597.323	13895.171	11.184
54.372	236.800	3771.972	585.180	13793.483	12.159
55.239	239.100	3693.128	573.350	13692.139	11.916
56.176	242.100	3737.255	593.456	13842.888	12.195
57.042	244.700	3795.203	587.092	13862.031	11.922
57.932	247.400	3827.774	594.019	13852.529	11.785
58.799	250.000	3777.785	576.486	13712.632	11.479
59.664	252.700	3807.450	571.777	13703.195	11.508
60.557	255.300	3925.224	570.544	13693.311	12.034
61.425	258.000	4095.918	588.287	13715.536	11.697
62.291	260.600	4171.128	580.181	13585.777	12.359
63.159	262.900	4394.782	586.590	13701.641	11.863
64.027	265.500	4665.004	582.096	13712.518	12.881
64.922	268.500	4842.269	569.924	13636.774	12.361
65.788	270.800	4873.489	578.022	13645.562	13.008
66.653	273.500	4936.293	558.542	13652.937	12.743
67.518	276.100	4986.669	546.576	13611.658	13.241
68.387	278.700	4942.055	552.902	13601.838	13.492
69.285	281.400	4748.929	554.663	13560.394	13.490
70.152	284.000	4646.604	551.440	13660.744	13.230
71.021	286.700	4617.356	561.244	13641.678	12.386
71.887	289.300	4500.191	569.203	13591.649	12.734
72.754	292.000	4387.842	553.647	13521.114	13.095
73.622	294.600	4341.204	554.718	13549.377	13.173
74.490	296.900	4393.509	559.750	13626.534	12.734
75.356	299.500	4366.918	573.270	13517.242	12.963
76.254	302.500	4355.358	556.254	13446.517	13.334
77.119	304.800	4330.385	551.735	13539.429	13.267
77.986	307.500	4432.194	567.139	13556.152	14.304
78.854	310.100	4441.224	558.195	13388.770	13.676
79.720	312.700	4427.263	575.478	13488.127	14.207
80.586	315.400	4505.903	554.274	13474.805	14.020
81.451	318.000	4552.995	557.772	13559.069	13.793
82.348	320.600	4596.280	565.853	13464.297	13.951
83.239	323.300	4604.547	555.753	13404.181	13.972
84.135	325.900	4660.528	573.855	13595.903	13.902
85.023	328.600	4797.573	564.812	13486.522	14.485
85.908	331.200	4856.887	570.391	13435.857	14.518
86.775	333.800	4822.152	563.757	13350.561	14.388
87.671	336.500	4902.575	543.895	13311.562	14.285
88.540	339.100	5017.976	533.686	13324.451	15.094
89.406	341.800	5117.807	536.030	13211.759	15.068
90.274	344.400	5087.643	546.396	13211.173	16.208
91.140	347.000	5159.720	546.498	13277.848	14.479
92.057	349.700	5400.229	550.748	13332.972	14.812
92.923	352.300	5478.549	566.551	13313.650	14.491
93.791	354.900	5446.135	556.966	13261.864	15.450
94.659	357.600	5518.310	554.624	13307.218	15.934
95.527	360.200	5685.530	573.866	13448.109	15.121
96.396	362.800	5734.637	574.240	13289.260	15.466
97.261	365.500	5647.791	567.099	13291.654	15.608
98.143	368.100	5589.245	561.830	13462.922	16.300
99.050	370.800	5627.987	565.462	13465.571	16.635
99.916	373.400	5475.035	567.837	13347.389	15.830
100.783	376.100	5194.273	549.855	13344.116	16.198
101.647	378.400	5034.284	567.172	13473.875	16.771
102.513	381.000	4973.443	572.195	13543.785	17.160
103.381	383.600	4831.416	578.005	13461.826	16.360
104.246	386.300	4636.218	552.269	13486.688	16.778
105.112	388.900	4638.821	578.004	13603.596	16.696
105.981	391.600	4629.968	575.077	13643.792	17.394
106.846	394.200	4600.074	568.225	13566.953	17.000
107.746	396.800	4587.977	567.395	13548.752	17.250
108.613	399.500	4596.508	577.358	13674.869	17.278
109.477	402.100	4669.270	581.136	13707.958	17.304
110.343	404.400	4630.245	582.327	13687.784	17.605
111.244	407.400	4593.226	573.329	13675.467	17.403
112.109	409.700	4567.413	552.843	13683.517	17.923
113.011	412.600	4613.907	561.071	13788.873	17.454
113.911	415.300	4636.191	570.232	13784.109	18.046
114.814	417.900	4531.235	573.002	13809.773	17.296
115.697	420.500	4469.029	558.054	13838.991	18.196
116.564	423.200	4536.449	571.204	14039.259	18.720
117.433	425.800	4525.934	563.250	14036.520	19.425
118.300	428.400	4429.979	565.410	14051.587	18.992
119.167	431.000	4444.706	573.452	14175.500	19.157
120.035	433.700	4482.627	559.380	14222.511	19.473
120.902	436.000	4510.575	575.208	14230.216	18.459
121.770	438.600	4436.397	567.809	14259.293	19.220
122.636	441.300	4404.066	556.566	14344.284	18.766
123.504	443.900	4513.047	562.660	14335.139	19.935
124.369	446.600	4497.032	556.472	14271.228	20.321
125.276	449.200	4442.729	560.535	14311.742	20.321
126.144	451.900	4474.267	552.352	14383.143	19.348
127.012	454.500	4529.147	561.684	14379.564	18.873
127.878	457.200	4518.237	571.799	14290.065	20.912
128.745	459.800	4452.359	563.695	14213.493	20.461
129.611	462.400	4446.471	556.809	14205.125	20.830
130.508	465.100	4517.384	570.446	14229.261	20.294
131.374	467.700	4471.371	577.426	14056.988	20.577
132.268	470.400	4358.218	548.908	13934.501	20.737
133.134	473.000	4368.551	553.055	13934.412	21.871
134.116	476.000	4314.160	545.856	13806.576	21.001
134.996	478.600	4376.384	548.960	13749.543	21.105
135.899	481.200	4373.033	561.481	13606.754	22.042
136.767	483.900	4290.052	555.909	13567.577	21.563
137.634	486.500	4290.535	558.150	13581.383	21.415
138.543	489.200	4362.578	563.063	13494.610	21.174
139.407	491.800	4332.321	581.361	13518.096	21.619
140.275	494.400	4270.678	575.811	13387.089	21.835
141.138	496.700	4250.157	580.462	13389.789	21.651
142.043	499.700	4313.486	555.914	13338.626	22.729
142.911	502.300	4273.015	568.909	13170.900	22.747
143.777	504.700	4165.635	571.325	13134.856	21.598
144.640	507.300	4201.172	577.134	13220.674	21.662
145.505	509.900	4254.552	578.883	13156.037	23.947
146.373	512.600	4216.828	577.337	13047.382	22.746
147.241	515.200	4163.058	578.998	13039.562	23.455
148.109	517.900	4164.288	579.073	13037.537	22.829
148.975	520.500	4231.996	579.559	13039.193	24.007
149.839	522.800	4173.665	577.225	12941.033	24.003
150.707	525.400	4133.892	576.404	12917.177	24.379
151.618	528.400	4145.132	576.449	12935.633	24.139
152.564	531.000	4201.720	581.588	12947.095	23.800
153.450	533.700	4153.059	585.880	12861.990	24.933
154.319	536.300	4083.181	574.865	12802.842	25.320
155.185	539.000	4086.092	581.624	12859.545	25.567
156.050	541.600	4155.447	584.431	12878.013	24.304
156.918	544.200	4166.743	571.395	12819.260	25.664
157.788	546.800	4079.619	582.952	12835.346	25.426
158.699	549.500	4090.286	585.720	12826.596	26.748
159.568	552.100	4133.627	581.770	12836.505	26.107
160.433	554.800	4110.680	570.003	12762.710	27.081
161.299	557.400	4023.326	572.927	12721.469	26.473
162.167	560.100	4031.054	580.556	12760.736	26.020
163.055	562.700	4104.913	592.214	12845.675	27.225
163.925	565.300	4098.590	586.511	12805.058	27.182
164.791	567.600	3987.473	569.998	12688.444	27.689
165.670	570.300	3997.092	581.625	12734.167	27.252
166.538	572.900	4080.629	578.949	12785.661	27.786
167.406	575.500	4104.988	598.542	12745.274	27.982
168.274	578.200	3987.760	584.407	12738.281	27.020
169.139	580.800	4027.687	611.023	12888.686	28.217
170.004	583.400	4109.489	592.972	12862.844	28.681
170.873	586.100	4086.470	580.544	12720.297	27.817
171.739	588.700	4019.245	587.416	12733.887	28.466
172.600	591.000	4049.550	580.684	12781.942	29.611
173.497	594.000	4074.316	585.503	12794.780	28.293
174.362	596.300	4061.753	610.732	12776.758	29.422
175.231	599.000	3979.329	594.849	12771.816	29.715
176.097	601.600	3984.008	582.490	12804.880	28.326
176.963	604.200	4012.070	595.887	12849.203	29.309
177.832	606.900	3947.243	587.670	12708.860	30.479
178.701	609.500	3914.635	592.279	12734.320	31.734
179.569	612.100	3979.031	594.698	12792.730	29.607
180.436	614.800	3999.503	588.805	12802.791	31.003
181.304	617.400	3929.747	579.131	12717.521	30.310
182.171	619.700	3910.868	607.973	12904.148	31.591
183.060	622.400	4039.344	614.756	12953.680	31.708
183.943	625.300	4003.401	606.694	12951.069	33.130
184.810	627.700	3926.022	609.481	12849.661	31.228
185.679	630.300	3916.156	619.077	12884.789	32.389
186.547	632.900	3969.616	602.547	12985.559	31.882
187.411	635.600	3972.950	603.739	12808.497	32.492
188.276	638.200	3891.280	609.811	12908.211	32.819
189.146	640.800	3916.416	622.780	12968.314	33.555
190.069	643.500	3967.946	615.578	12997.926	34.121
190.937	646.100	3954.114	603.502	12913.484	33.062
191.803	648.800	3878.376	622.682	12953.897	34.074
192.670	651.400	3894.310	634.584	13011.223	34.591
193.539	654.000	3947.300	606.348	12977.446	34.229
194.439	656.700	3962.300	601.170	12951.897	33.298
195.307	659.300	3864.961	612.103	12896.672	34.270
196.173	661.900	3860.824	599.233	12857.176	33.681
197.043	664.600	3943.210	605.159	12951.311	35.435
197.909	666.900	3966.647	622.470	12983.050	35.960
198.775	669.500	3884.118	629.337	13005.696	35.806
199.643	672.200	3877.096	621.553	13077.020	34.654
200.510	674.800	3976.703	625.582	13127.100	36.103
201.376	677.400	3985.263	641.865	13108.364	36.236
202.242	680.000	3898.598	635.290	13052.973	36.688
203.150	682.700	3887.853	628.875	13055.966	36.835
204.019	685.300	3913.108	650.513	13101.856	37.565
204.883	688.000	3937.896	624.836	12937.123	37.776
205.749	690.600	3829.690	631.831	12973.523	37.798
206.617	693.200	3824.929	626.464	13045.459	36.523
207.484	695.900	3881.137	627.977	13023.323	39.093
208.351	698.200	3837.836	639.088	12938.001	38.873
209.218	700.800	3791.767	643.892	12913.356	38.796
210.087	703.400	3856.151	631.588	13016.573	39.642
210.951	706.100	3897.240	634.628	13028.660	39.008
211.819	708.700	3809.566	636.252	12949.464	39.769
212.686	711.400	3763.834	629.994	13003.518	39.650
213.553	714.000	3878.962	643.941	13071.479	39.000
214.457	716.600	3862.295	646.246	13094.711	40.677
215.326	719.300	3768.797	637.691	13016.445	41.393
216.227	721.900	3758.874	637.589	12991.163	41.163
217.095	724.500	3814.927	656.782	13115.981	40.756
217.960	727.200	3832.218	649.807	13123.151	40.759
218.826	729.800	3764.055	666.568	13057.546	42.329
219.694	732.400	3768.962	675.190	13125.457	42.157
220.564	734.800	3811.861	680.196	13168.557	42.894
221.428	737.400	3792.946	671.324	13113.306	43.407
222.298	740.000	3744.681	659.740	13037.499	44.646
223.163	742.600	3724.596	673.868	13196.526	42.514
224.029	745.300	3819.993	673.752	13181.255	44.477
224.897	747.900	3799.024	667.425	13095.144	44.816
225.769	750.600	3728.698	660.717	13071.263	45.041
226.634	753.200	3750.640	674.898	13212.128	44.318
227.500	755.500	3809.692	665.014	13211.007	43.989
228.368	758.100	3771.094	667.490	13113.752	47.871
229.234	760.800	3726.101	687.028	13203.378	45.443
230.100	763.400	3752.277	667.213	13238.365	46.560
231.006	766.000	3804.270	682.238	13284.038	46.930
231.872	768.700	3774.057	676.993	13197.761	47.777
232.759	771.300	3711.517	685.807	13196.653	49.185
233.626	774.000	3717.684	682.258	13301.754	48.593
234.494	776.600	3767.862	676.233	13274.728	48.256
235.362	779.300	3750.138	696.407	13252.363	47.973
236.231	781.900	3691.834	683.017	13203.888	48.936
237.097	784.500	3728.916	679.773	13298.519	48.661
237.964	787.100	3788.311	666.338	13308.632	50.683
238.831	789.800	3734.180	692.669	13306.862	50.888
239.698	792.100	3730.415	685.659	13313.714	50.124
240.565	794.700	3807.393	691.663	13446.199	50.808
241.517	797.700	3786.228	709.848	13461.113	50.997
242.374	800.300	3806.281	696.459	13374.607	52.394
