Wed, Oct 04, 2017	1:09 PM
 Notes: GUA_RGAL_100417
 waiting time: 50.000
 time(s)	 temp (K)	 MS1=1.994	 MS2=17.798	 MS3=26.922	 MS4=27.907	 MS5=28.936	 MS6=30.937	 MS7=78.871	 MS8=125.586
0.000	97.400	1793.991	667.579	231.827	5780.970	434.731	138.902	107.825	107.685
1.063	97.400	1650.451	647.061	232.005	5779.136	437.088	137.641	107.570	108.449
2.037	97.400	1649.037	642.807	230.018	5773.239	435.432	138.953	107.061	108.793
3.019	97.400	1664.117	644.692	231.216	5767.814	438.132	140.800	108.462	107.506
3.978	97.400	1658.551	647.698	231.827	5785.046	437.024	137.781	107.328	108.640
4.938	97.400	1657.214	651.684	229.216	5750.951	439.011	138.736	108.258	108.360
5.895	97.400	1643.726	654.168	234.616	5779.811	442.806	139.208	107.825	107.290
6.868	97.400	1653.660	649.200	231.852	5758.656	436.986	139.819	107.570	108.347
7.842	97.400	1665.021	650.831	234.234	5778.640	438.298	139.933	108.831	107.481
8.815	97.400	1671.224	648.793	226.134	5798.305	436.629	138.876	106.831	108.373
9.772	97.400	1696.671	650.703	232.285	5795.426	441.876	139.029	107.366	108.602
10.725	97.400	1672.854	653.480	230.515	5765.789	431.687	139.118	108.067	109.468
11.685	97.400	1692.086	656.396	231.407	5794.407	439.367	140.201	108.551	108.474
12.643	97.400	1684.648	661.466	230.209	5813.690	436.120	139.717	107.201	108.589
13.604	97.400	1668.282	661.848	232.324	5797.795	432.388	139.258	106.691	109.111
14.560	97.400	1665.123	658.039	232.884	5784.040	435.827	140.367	106.386	108.602
15.537	97.400	1643.115	649.812	231.865	5757.574	437.673	140.303	107.710	107.264
16.491	97.400	1653.992	654.244	233.011	5772.271	435.113	138.673	107.519	109.264
17.446	97.400	1670.753	666.369	235.062	5768.438	434.018	136.813	106.577	109.162
18.400	97.400	1666.384	655.492	237.011	5795.490	435.903	140.010	107.889	108.920
19.376	97.400	1656.526	662.510	234.591	5784.333	435.916	139.093	107.468	108.627
20.326	97.400	1678.178	662.994	232.375	5782.129	436.387	138.227	107.838	108.627
21.275	97.400	1677.618	667.808	234.935	5814.289	432.452	138.940	107.354	109.481
22.242	97.400	1687.208	666.840	234.005	5751.804	433.458	137.934	107.736	108.844
23.193	97.400	1687.616	668.432	235.890	5798.419	429.917	139.590	107.175	108.831
24.152	97.400	1688.062	666.560	233.266	5791.198	429.573	136.762	107.570	109.328
25.108	97.400	1681.388	669.732	232.464	5814.786	433.700	139.984	107.545	109.048
26.064	97.400	1669.441	668.840	234.680	5753.714	429.548	137.297	107.965	109.544
27.016	97.400	1641.956	668.178	234.680	5761.178	428.465	138.507	107.787	108.143
27.989	97.300	1650.999	670.266	236.005	5746.200	430.223	138.367	108.245	109.723
28.953	97.300	1664.334	668.280	233.444	5789.198	431.318	138.290	108.360	109.086
29.912	97.300	1651.139	671.451	235.571	5780.716	434.133	137.615	107.774	108.984
30.867	97.300	1646.885	674.610	236.055	5795.248	431.484	138.482	107.392	108.678
31.829	97.300	1682.700	669.935	234.896	5761.420	426.605	138.227	106.488	109.239
32.793	97.300	1685.960	666.446	235.126	5771.100	429.089	139.258	107.392	110.474
33.746	97.300	1670.231	673.234	236.743	5796.305	433.216	134.928	107.596	109.939
34.724	97.300	1695.500	679.806	237.355	5790.395	429.828	139.016	108.182	109.863
35.683	97.300	1670.116	676.647	238.221	5789.198	429.700	138.494	107.456	110.092
36.642	97.300	1664.346	676.647	234.731	5802.533	425.905	139.488	107.379	108.742
37.600	97.300	1680.483	683.971	238.386	5781.162	431.509	139.883	107.456	110.219
38.557	97.300	1653.928	681.207	239.749	5792.828	426.758	137.947	108.334	109.570
39.514	97.300	1647.521	677.475	238.857	5780.932	426.618	136.928	107.519	110.716
40.496	97.300	1650.986	688.416	240.781	5802.240	431.815	137.310	107.761	110.283
41.453	97.300	1657.532	684.964	240.399	5786.371	429.866	139.055	108.271	109.748
42.441	97.300	1651.457	691.638	244.653	5771.227	425.064	139.883	107.506	111.468
43.412	97.300	1652.591	690.976	242.271	5773.647	427.854	137.959	108.194	111.582
44.368	97.300	1642.058	694.606	239.558	5808.226	431.815	136.737	107.557	111.264
45.328	97.300	1671.390	711.380	244.130	5861.159	430.923	137.424	107.723	111.060
46.285	97.300	1685.603	728.166	246.550	5914.818	438.769	139.424	107.112	111.901
47.243	97.300	1714.859	788.996	249.976	6328.943	455.861	141.806	108.844	115.734
48.219	97.300	1774.631	1231.829	271.819	7728.679	501.305	146.034	109.952	121.593
49.178	97.300	1929.723	2562.049	314.652	9248.864	567.980	153.753	110.194	132.788
50.135	97.300	2136.283	4158.411	367.305	9643.248	606.202	161.624	110.792	143.347
51.097	97.300	2242.976	4969.735	412.786	9887.571	629.905	163.738	111.977	154.962
52.048	97.200	2275.161	5529.910	451.709	9936.683	652.092	169.571	111.391	164.362
53.000	97.200	2336.958	5909.379	479.232	9974.599	676.991	171.711	112.385	171.673
53.950	97.200	2371.945	6209.705	504.081	10009.446	686.021	172.730	113.531	184.537
54.908	97.300	2431.475	6445.584	533.974	9976.331	699.611	179.900	115.046	195.719
55.867	97.200	2467.456	6690.289	567.050	10016.871	724.677	183.556	114.830	206.927
56.850	97.200	2528.158	6876.496	584.550	10068.034	743.565	187.873	115.772	218.556
57.855	97.200	2555.656	7087.297	621.983	10099.748	766.096	189.733	116.244	231.267
58.814	97.200	2627.158	7237.116	644.119	10164.398	781.494	193.720	116.167	236.858
59.771	97.200	2661.610	7386.349	683.563	10223.164	805.935	198.330	119.237	252.549
60.732	97.200	2711.805	7505.104	716.984	10265.971	816.405	200.253	118.243	264.916
61.691	97.200	2696.572	7648.529	750.735	10348.872	845.087	207.398	120.281	277.729
62.652	97.200	2757.707	7744.039	784.321	10436.856	866.446	207.831	121.173	288.644
63.612	97.200	2787.816	7877.568	812.685	10490.960	887.831	216.492	122.306	304.336
64.565	97.300	2776.569	7959.871	858.409	10489.024	898.147	219.116	121.720	319.632
65.523	97.300	2783.791	8094.763	894.224	10568.589	925.097	223.485	121.669	333.005
66.486	97.300	2822.191	8181.715	930.230	10574.741	954.773	225.510	124.293	343.462
67.447	97.300	2828.598	8277.060	971.484	10660.533	971.662	227.917	124.420	363.968
68.408	97.200	2854.402	8376.060	1014.265	10739.894	995.632	234.654	125.580	376.628
69.362	97.200	2892.815	8461.624	1049.329	10801.653	1021.716	241.265	126.140	391.669
70.325	97.200	2957.847	8486.689	1082.074	10901.010	1041.254	244.614	126.853	400.954
71.305	97.200	2969.463	8331.508	1106.044	10393.348	1040.133	246.003	126.637	419.651
72.264	97.200	2902.966	7192.475	1107.814	8821.174	989.977	240.615	127.401	411.526
73.222	97.200	2668.755	5693.917	1081.883	7427.258	936.267	231.483	125.605	392.867
74.177	97.200	2457.547	4028.193	1030.708	6917.431	906.782	227.637	124.331	378.818
75.136	97.200	2335.914	3355.021	984.016	6841.598	875.795	223.383	123.325	360.401
76.093	97.200	2262.768	2954.905	961.664	6803.631	859.785	224.402	122.306	352.416
77.044	97.200	2196.615	2694.368	933.886	6770.694	839.508	219.065	123.363	342.239
77.999	97.200	2156.534	2505.270	900.694	6764.555	819.996	216.034	122.625	333.566
78.953	97.200	2149.274	2329.813	868.535	6739.809	810.011	208.341	120.370	324.497
79.915	97.200	2122.476	2202.156	848.182	6725.187	804.814	211.016	121.580	309.124
80.873	97.300	2112.746	2108.390	824.632	6706.095	794.498	206.176	121.313	306.552
81.832	97.300	2104.149	2013.975	800.955	6663.899	782.908	206.940	120.510	296.910
82.781	97.200	2104.391	1950.216	780.106	6655.188	773.330	204.202	119.950	297.331
83.734	97.300	2087.604	1893.692	768.324	6652.653	768.108	205.705	120.179	287.103
84.694	97.300	2075.199	1838.466	748.112	6659.276	761.192	204.571	119.084	283.550
85.654	97.300	2065.430	1787.380	735.133	6681.361	754.378	202.304	119.046	275.004
86.612	97.300	2042.033	1729.799	728.192	6595.823	746.596	199.120	117.963	268.801
87.568	97.300	2024.941	1701.868	720.232	6610.928	738.254	198.075	118.332	261.910
88.528	97.300	1988.973	1672.026	701.917	6621.283	731.376	198.814	118.269	268.164
89.489	97.300	2006.078	1639.459	699.637	6630.695	729.020	198.572	116.906	260.968
90.448	97.300	1971.155	1605.975	684.671	6559.690	725.823	194.547	117.810	256.918
91.399	97.300	1964.060	1572.427	668.738	6604.662	722.282	194.165	117.619	252.562
92.355	97.300	1984.732	1550.623	664.866	6620.965	717.952	193.567	116.779	252.575
93.314	97.300	1999.073	1532.002	651.047	6590.983	716.067	196.420	117.874	247.544
94.274	97.300	2013.478	1509.777	640.221	6568.363	712.934	190.663	117.810	245.557
95.233	97.300	2001.187	1486.087	633.611	6568.121	712.819	194.586	116.422	243.124
96.186	97.200	1979.089	1473.593	626.517	6564.733	706.527	191.822	118.243	242.016
97.140	97.200	1984.655	1462.155	625.027	6574.107	704.298	192.611	117.479	241.125
98.110	97.200	1967.525	1432.186	619.856	6557.601	703.483	192.331	117.441	241.749
99.071	97.300	1950.865	1427.448	613.233	6593.785	695.561	191.401	116.422	237.431
100.029	97.200	1934.474	1413.324	614.366	6537.006	689.983	191.274	116.689	232.056
100.987	97.200	1948.178	1403.593	600.420	6558.238	692.721	191.720	115.594	232.018
101.948	97.200	1937.161	1383.164	597.452	6525.658	684.519	186.638	117.224	228.006
102.906	97.200	1939.861	1369.243	593.733	6546.164	685.245	186.332	115.441	227.930
103.865	97.300	1918.107	1362.301	585.786	6514.564	683.334	188.727	117.301	224.096
104.824	97.300	1941.326	1356.583	583.098	6535.758	685.601	187.810	115.416	222.211
105.782	97.300	1946.917	1348.852	575.265	6516.972	675.259	186.562	115.645	220.122
106.734	97.300	1962.940	1329.059	556.950	6481.017	675.145	184.129	115.238	221.625
107.689	97.300	1946.994	1329.989	568.362	6544.431	676.495	187.721	115.772	221.065
108.653	97.300	1973.129	1315.508	560.784	6508.744	681.207	186.995	114.524	219.256
109.612	97.300	1940.549	1321.392	557.893	6540.127	666.522	184.651	115.925	217.231
110.572	97.300	1913.191	1319.915	560.389	6541.591	666.433	185.339	116.307	217.753
111.531	97.300	1900.442	1300.390	558.670	6492.352	661.160	188.115	117.479	217.346
112.487	97.300	1894.825	1308.719	554.556	6512.297	665.936	184.600	115.721	212.238
113.503	97.300	1905.524	1295.919	550.327	6503.637	664.344	185.110	117.250	209.233
114.455	97.300	1906.262	1289.080	546.685	6512.667	658.269	182.117	116.689	205.959
115.436	97.300	1915.127	1285.641	548.837	6455.225	663.835	183.518	115.862	206.367
116.389	97.300	1903.511	1269.937	540.915	6451.736	659.339	182.779	115.811	205.768
117.346	97.300	1910.364	1270.663	536.075	6507.903	656.906	184.689	115.556	203.998
118.304	97.300	1935.111	1281.642	533.311	6492.696	655.772	182.078	115.352	206.112
119.263	97.300	1913.217	1264.358	529.707	6488.518	651.225	184.142	115.530	204.775
120.218	97.300	1931.035	1270.930	520.728	6499.026	657.899	183.403	115.989	207.972
121.179	97.300	1936.996	1264.244	524.663	6465.364	649.837	181.875	115.976	204.558
122.140	97.300	1939.250	1257.633	521.645	6481.819	649.837	182.728	115.785	202.062
123.100	97.300	1914.032	1235.739	521.199	6477.183	644.246	181.594	115.645	203.667
124.051	97.300	1870.104	1245.929	526.739	6482.074	642.310	180.397	115.199	201.387
125.032	97.300	1882.407	1237.000	516.270	6481.819	640.731	180.295	116.511	201.667
125.990	97.300	1880.509	1239.115	515.722	6435.331	639.495	181.314	114.779	192.522
126.948	97.200	1878.599	1215.399	511.201	6422.009	639.444	180.626	115.288	196.139
127.901	97.300	1884.063	1220.086	514.385	6499.217	635.139	180.142	115.365	195.197
