Wed, Oct 04, 2017	2:52 PM
 Notes: GUA_ after purficaion_100417
 waiting time: 50.000
 time(s)	 temp (K)	 MS1=1.994	 MS2=17.798	 MS3=26.922	 MS4=27.907	 MS5=28.936	 MS6=30.937	 MS7=78.871	 MS8=125.586
0.000	97.500	2197.239	2639.551	510.450	6637.038	678.163	194.496	118.829	191.172
1.085	97.500	2040.899	2564.380	511.545	6624.060	672.050	191.440	119.683	191.070
2.034	97.500	2037.117	2542.499	518.983	6650.029	659.224	192.892	119.071	188.841
3.029	97.500	2037.142	2563.743	521.607	6630.135	665.427	195.171	120.065	191.516
4.003	97.500	2028.838	2570.927	517.862	6650.590	673.922	192.471	119.899	190.739
4.957	97.500	2031.704	2564.902	518.231	6650.679	662.293	193.656	120.230	188.014
5.928	97.600	2036.824	2582.912	516.474	6691.206	666.000	188.854	118.473	189.198
6.956	97.600	2027.654	2597.571	516.512	6660.269	666.013	192.841	118.396	189.096
7.912	97.600	2033.563	2582.122	516.614	6672.369	672.228	190.510	118.969	188.370
8.871	97.600	2037.855	2583.701	514.245	6624.455	661.708	190.077	119.288	186.778
9.831	97.600	2005.505	2560.750	510.462	6554.060	658.090	185.581	119.415	186.243
10.787	97.700	1996.347	2564.482	498.630	6596.613	658.931	189.580	117.377	186.218
11.745	97.800	2008.307	2533.482	498.872	6799.963	661.873	185.594	119.020	184.600
12.699	98.100	2017.694	2556.127	503.177	7896.444	697.917	188.549	118.906	186.714
13.715	98.800	2017.452	2563.960	518.919	8684.970	731.236	190.994	117.861	184.626
14.669	100.100	2048.172	2656.121	520.371	8913.271	730.765	192.268	124.930	186.944
15.627	102.300	2099.665	3699.746	544.010	9931.474	783.315	204.495	122.956	188.345
16.605	104.800	2159.323	3682.691	565.828	10596.635	804.509	202.253	121.033	190.879
17.593	108.400	2142.727	3175.908	556.186	10110.179	797.720	198.521	120.943	184.689
18.564	112.500	2131.698	2921.612	541.093	9439.936	776.883	197.018	119.835	186.434
19.533	116.700	2101.703	2832.763	546.990	8974.966	757.728	193.528	119.517	186.867
20.491	120.900	2103.741	2857.306	546.150	8702.801	739.413	193.911	119.441	186.740
21.460	125.000	2095.055	2992.771	556.581	8637.794	756.772	196.025	121.695	185.454
22.417	128.500	2115.013	3240.265	566.910	8740.450	767.840	205.437	124.089	185.479
23.377	132.400	2124.654	3757.060	565.586	8771.323	786.538	206.329	127.248	187.784
24.336	136.200	2148.637	4644.281	579.290	8813.150	797.262	217.142	134.712	189.669
25.291	139.600	2206.206	6053.097	609.106	8893.377	828.682	235.673	135.450	189.631
26.246	143.300	2234.341	7659.075	636.617	8886.384	872.942	263.184	127.426	190.790
27.203	146.900	2275.645	8933.063	659.007	8846.137	912.195	280.009	127.223	192.739
28.159	150.500	2289.426	9412.731	671.795	8717.856	894.453	270.036	129.337	196.572
29.120	153.600	2288.381	9388.277	677.908	8656.007	897.294	256.752	128.674	204.724
30.081	157.000	2286.089	9237.681	702.923	8724.517	944.177	268.928	134.355	218.199
31.041	160.300	2306.467	9668.186	758.339	8916.812	1075.298	295.738	145.563	245.162
32.047	163.600	2343.709	10775.327	863.848	9205.802	1279.884	335.744	158.147	298.337
33.022	166.900	2407.404	12711.840	1016.851	9494.129	1477.070	379.035	181.365	380.296
33.992	170.100	2480.473	15742.185	1255.939	9680.183	1590.475	398.254	206.214	514.971
34.945	172.900	2559.439	20089.849	1622.443	9922.533	1667.887	417.843	223.179	704.094
35.920	176.100	2681.326	25853.334	2087.821	10271.129	1860.322	467.222	231.177	1012.762
36.890	179.200	2841.857	32238.664	2676.168	10628.043	2069.022	525.759	234.234	1122.996
37.848	182.300	2987.918	37828.424	2832.941	10784.166	2260.540	584.206	245.519	1320.615
38.820	185.000	3087.632	41706.125	3328.962	11083.269	2629.476	697.586	280.264	1876.561
39.775	188.100	3208.501	44130.291	4372.154	11679.640	3282.079	878.304	345.067	3118.390
40.805	191.500	3280.793	44851.034	6522.665	12841.255	4465.295	1238.516	466.241	6144.774
41.812	194.500	3415.812	42693.938	10387.235	14788.735	6336.522	1861.647	680.188	12986.718
42.770	197.200	3565.911	31209.826	16660.063	18191.252	9106.062	2750.625	986.665	26762.640
43.724	200.200	3664.300	16000.392	27833.686	24544.740	12533.135	3979.451	1453.953	54255.781
44.683	203.200	4256.532	14562.803	47456.338	36135.227	17114.742	5949.754	2200.767	92912.037
45.645	206.200	5025.928	14337.699	68687.833	52618.829	21164.066	7354.291	2696.865	103270.018
46.609	208.900	5789.198	12564.136	72382.384	61961.626	20579.209	6762.390	2385.892	89094.363
47.612	211.800	4799.589	9686.730	52934.756	55106.907	15061.970	4655.017	1511.802	41262.960
48.573	214.900	4314.916	7940.741	24618.892	39211.016	8538.615	2495.756	822.798	18953.401
49.531	217.800	3839.987	7136.141	17438.719	30787.103	6811.820	1965.461	654.473	13440.773
50.492	220.800	3647.806	6728.575	14221.734	26359.901	5950.938	1672.065	570.043	10599.526
51.450	223.500	3534.312	6417.793	12300.351	23751.871	5379.097	1485.336	514.194	8817.658
52.408	226.400	3466.618	6087.511	11036.488	21973.047	5005.716	1348.495	477.093	7670.728
53.400	229.400	3371.374	5866.687	10069.588	20655.627	4674.950	1252.411	443.825	6769.039
54.383	232.400	3301.273	5728.993	9272.732	19597.292	4394.633	1158.824	411.602	5927.363
55.340	235.400	3301.923	5573.417	8360.725	18587.941	4093.009	1070.395	380.092	5045.275
56.296	238.000	3239.399	5465.463	7465.162	17804.802	3863.167	983.711	353.167	4336.886
57.250	241.000	3196.197	5301.023	6716.539	16923.427	3650.838	913.558	329.337	3811.852
58.224	243.900	3154.447	5167.749	6111.991	16262.660	3443.374	854.053	313.926	3372.724
59.181	246.900	3135.941	5054.203	5669.934	15607.014	3307.692	808.775	302.744	3054.415
60.141	249.600	3091.211	4963.316	5293.954	15157.532	3151.136	767.598	286.925	2785.918
61.096	252.500	3071.660	4869.996	4966.131	14721.512	3025.669	737.540	276.570	2564.622
62.151	255.800	3030.076	4796.328	4622.539	14287.466	2903.959	701.496	267.081	2349.414
63.169	258.800	3008.908	4721.884	4363.582	13933.546	2822.675	673.272	256.701	2170.022
64.155	261.800	3024.192	4670.874	4142.121	13620.904	2717.179	650.245	252.447	2015.783
65.110	264.700	3009.137	4621.597	3940.859	13358.470	2633.845	631.586	249.238	1888.979
66.094	267.400	2988.211	4562.194	3768.955	13142.090	2549.211	615.576	244.385	1788.387
67.050	270.300	2976.799	4535.919	3628.167	12937.887	2486.713	600.140	238.781	1694.659
68.013	273.300	2983.358	4485.559	3510.291	12726.194	2407.671	575.380	234.693	1606.243
68.974	276.300	2946.779	4478.197	3350.105	12538.867	2360.877	565.713	230.388	1518.208
69.936	278.900	2968.406	4440.090	3219.518	12466.460	2300.099	550.709	223.765	1443.216
70.895	281.900	2976.786	4425.252	3109.577	12330.893	2249.166	538.393	223.357	1383.902
71.905	284.900	2967.973	4388.635	3019.263	12128.562	2204.525	519.734	218.135	1318.921
72.874	287.800	2982.874	4373.364	2914.913	11972.426	2156.075	510.488	214.938	1273.592
73.827	290.800	2996.311	4367.734	2829.884	11904.961	2119.993	494.262	210.761	1213.247
74.786	293.800	3008.360	4360.920	2721.281	11772.515	2104.862	499.534	208.430	1179.266
75.738	296.400	3032.980	4392.838	2637.640	11664.790	2078.370	489.141	204.966	1138.624
76.726	299.400	3074.742	4400.352	2570.914	11621.830	2039.957	471.820	202.826	1103.637
77.684	302.400	3086.435	4421.991	2503.296	11483.512	1990.094	477.195	202.750	1071.745
78.637	305.300	3115.525	4463.232	2448.759	11372.947	1969.512	474.507	199.909	1048.921
79.596	308.000	3172.877	4484.336	2383.332	11234.336	1939.364	464.280	200.011	1011.501
80.555	310.900	3235.922	4516.598	2346.014	11197.171	1914.872	461.656	198.114	1003.337
81.515	313.900	3322.377	4569.581	2296.061	11108.003	1883.770	460.357	196.585	962.721
82.475	316.500	3384.620	4565.493	2252.885	11055.516	1866.066	453.212	195.974	931.631
83.444	319.500	3486.041	4610.554	2218.891	10996.954	1834.378	445.264	196.076	912.501
84.404	322.500	3580.889	4628.780	2158.648	10978.690	1815.694	443.519	195.286	873.273
85.359	325.400	3642.546	4668.072	2123.648	10944.327	1786.145	436.744	193.923	864.574
86.316	328.100	3710.673	4685.190	2072.269	10884.020	1781.662	428.618	191.351	842.794
87.272	331.000	3766.663	4729.067	2012.548	10785.656	1776.949	430.732	190.484	821.244
88.233	334.000	3792.531	4742.479	1975.243	10790.891	1751.069	424.542	190.268	801.936
89.187	336.600	3792.887	4768.486	1929.150	10710.167	1740.510	425.548	187.198	775.444
90.149	339.600	3803.764	4812.911	1884.228	10622.668	1712.872	418.862	187.033	758.415
91.106	342.600	3826.995	4803.423	1851.738	10596.227	1686.686	409.590	187.466	737.324
92.074	345.500	3837.388	4837.977	1807.504	10816.822	1683.642	413.411	186.702	719.811
93.041	348.200	3782.227	4872.352	1794.882	10513.771	1644.911	411.920	186.651	700.707
93.999	351.100	3761.925	4863.513	1775.013	10534.876	1624.239	412.404	183.518	695.472
94.958	354.100	3764.090	4886.095	1732.639	10475.817	1612.000	404.419	183.072	669.184
95.919	357.100	3761.530	4874.084	1712.465	10514.421	1610.127	393.809	180.423	654.002
96.877	359.700	3770.051	4895.494	1685.158	10539.231	1598.843	390.039	180.856	643.584
97.873	362.700	3758.639	4849.681	1655.393	10519.987	1577.624	389.326	179.327	631.815
98.827	365.700	3798.797	4884.350	1624.851	10531.500	1557.347	391.058	180.703	623.677
99.784	368.600	3805.827	4846.459	1594.283	10479.217	1564.964	384.792	178.550	607.973
100.746	371.600	3789.945	4850.738	1558.163	10482.733	1553.679	383.047	178.168	604.814
101.762	374.600	3826.715	4878.326	1536.129	10501.086	1547.668	378.627	176.118	585.263
102.715	377.200	3847.972	4835.951	1512.197	10490.018	1533.301	377.124	175.659	575.253
103.677	380.200	3835.720	4860.393	1484.508	10456.636	1528.334	376.768	176.665	568.388
104.639	383.200	3866.427	4848.408	1468.371	10484.032	1508.490	376.156	176.181	562.669
105.598	386.100	3872.515	4843.160	1457.927	10486.897	1504.173	375.723	176.245	553.104
106.559	388.800	3872.808	4845.835	1448.311	10528.940	1483.871	374.131	177.188	542.138
107.519	391.700	3918.800	4851.643	1433.829	10608.683	1477.439	370.272	175.799	535.095
108.482	394.700	3930.759	4861.208	1420.341	10732.456	1463.454	371.075	175.494	535.235
109.440	397.700	3944.744	4827.927	1395.442	10894.795	1470.408	364.503	176.856	521.148
110.398	400.300	3990.952	4786.725	1377.700	11095.177	1454.284	358.746	176.653	511.851
111.356	403.200	4026.805	4815.178	1360.557	11299.839	1453.826	357.319	176.933	504.553
112.316	406.200	4027.352	4841.810	1350.711	11416.149	1467.836	352.760	175.417	496.554
113.277	408.900	4024.372	4851.350	1331.556	11587.135	1468.931	353.142	174.526	490.823
114.241	411.800	4047.629	4839.721	1320.233	11825.804	1452.845	354.555	172.755	486.390
115.202	414.800	4017.647	4838.728	1299.371	11967.879	1453.201	353.091	172.017	488.288
116.162	417.700	4007.891	4818.553	1296.620	12050.156	1454.870	351.206	171.010	484.416
117.120	420.400	3945.432	4854.840	1279.323	12164.937	1449.190	351.193	171.342	476.532
118.124	423.700	3866.835	4849.541	1268.230	12281.934	1427.461	347.499	170.335	469.234
119.082	426.300	3859.754	4854.088	1254.054	12315.176	1446.629	344.736	171.558	465.770
120.040	429.300	3808.578	4855.629	1257.379	12336.828	1429.410	342.265	171.074	460.752
121.028	432.300	3768.000	4844.090	1250.934	12367.358	1428.849	344.825	170.603	455.721
121.986	435.200	3751.608	4859.565	1229.486	12398.371	1405.937	340.622	170.870	445.481
122.945	437.900	3722.022	4845.478	1230.912	12378.184	1411.197	338.304	169.584	443.698
123.926	440.800	3720.430	4835.429	1209.642	12480.890	1409.375	335.705	168.170	438.960
124.882	443.800	3671.203	4817.815	1213.234	12480.139	1414.686	330.229	168.005	434.018
125.836	446.800	3645.081	4836.359	1201.173	12493.894	1401.759	328.573	170.017	427.599
126.964	450.100	3631.109	4816.758	1183.749	12701.193	1409.426	332.470	168.540	427.739
127.929	453.000	3639.247	4818.388	1181.800	12379.241	1388.271	328.904	168.285	421.052
128.870	455.700	3608.094	4850.955	1179.966	12394.652	1402.447	329.617	167.431	416.263
129.810	458.600	3593.791	4795.704	1167.497	12409.197	1379.075	325.172	167.024	414.582
130.760	461.300	3625.836	4804.429	1149.603	12330.333	1383.775	326.268	168.234	415.385
131.712	464.300	3612.399	4808.288	1147.119	12261.059	1375.127	324.192	167.444	420.709
132.670	467.200	3586.251	4794.685	1128.384	12162.517	1373.752	329.337	166.132	414.850
133.634	470.200	3594.377	4806.900	1129.339	12062.715	1375.726	326.815	165.929	411.666
134.591	472.800	3590.823	4803.614	1135.262	12039.954	1373.408	325.656	167.903	410.354
135.546	475.800	3560.371	4813.255	1135.223	11995.148	1352.138	325.924	168.157	411.309
136.506	478.800	3550.411	4771.811	1135.580	11905.216	1340.051	319.798	167.279	413.079
137.466	481.400	3530.605	4806.505	1139.592	11811.717	1345.744	323.198	169.202	410.723
138.424	484.400	3519.372	4811.727	1154.150	11721.964	1342.611	322.205	167.801	415.805
139.384	487.400	3513.449	4784.713	1155.360	11627.268	1332.422	322.663	167.177	419.868
140.343	490.300	3484.945	4762.500	1155.996	11512.054	1339.096	322.065	168.845	423.472
141.301	493.000	3497.032	4798.557	1164.403	11393.057	1342.152	320.447	167.304	421.791
142.255	495.900	3510.724	4774.205	1161.422	11208.557	1342.815	321.835	167.381	435.827
143.213	498.900	3507.565	4734.607	1183.354	11082.403	1352.087	322.842	166.387	438.348
144.169	501.500	3479.087	4738.543	1192.639	10996.776	1350.342	329.808	168.985	451.200
145.124	504.500	3472.451	4753.674	1217.781	10793.515	1362.098	328.917	169.444	459.886
146.086	507.400	3499.707	4741.969	1239.191	10750.809	1350.711	331.553	172.335	472.941
147.044	510.100	3489.301	4774.218	1279.158	10675.588	1358.837	333.859	171.800	481.143
148.004	513.100	3475.979	4755.584	1310.248	10613.345	1356.978	337.922	172.399	499.980
148.957	516.000	3464.134	4765.901	1334.460	10558.374	1370.644	340.431	173.227	513.812
149.914	519.000	3477.838	4768.754	1366.683	10555.865	1393.862	339.743	176.092	531.083
150.890	521.600	3462.657	4727.284	1409.031	10541.715	1412.241	339.501	178.207	545.717
151.944	524.900	3459.320	4763.659	1450.654	10372.944	1416.890	353.575	178.436	565.917
152.900	527.900	3501.388	4752.362	1486.049	10482.936	1426.888	350.569	180.843	582.640
153.858	530.600	3456.760	4772.409	1525.736	10492.820	1423.258	356.377	178.678	605.107
154.813	533.500	3470.502	4726.609	1546.305	10459.603	1442.681	354.772	177.519	611.297
155.766	536.500	3494.408	4729.589	1561.665	10462.889	1457.710	358.071	178.703	632.872
156.726	539.500	3482.857	4721.565	1586.412	10421.190	1463.276	362.503	179.073	636.808
157.685	542.100	3458.352	4725.552	1613.859	10393.437	1472.090	363.815	182.142	653.582
158.641	545.100	3500.751	4724.558	1635.677	10377.377	1482.470	368.973	181.187	663.478
159.605	548.000	3485.085	4723.374	1645.878	10380.293	1488.138	374.055	183.301	677.590
160.567	550.700	3470.795	4679.752	1673.224	10390.763	1478.929	368.693	182.091	672.483
161.529	553.600	3474.743	4670.085	1683.247	10372.116	1483.489	374.182	186.065	680.379
162.489	556.600	3451.117	4657.743	1687.183	10367.200	1476.204	372.386	186.880	676.635
163.448	559.500	3442.189	4668.684	1696.086	10379.465	1487.997	375.227	181.696	669.171
164.409	562.200	3445.411	4614.439	1693.908	10371.148	1477.987	368.655	183.314	662.586
165.368	565.200	3420.626	4618.820	1682.114	10366.169	1470.281	366.566	183.747	658.804
166.327	568.100	3400.566	4605.473	1665.289	10377.670	1477.515	368.260	182.753	651.378
167.289	571.100	3417.684	4586.967	1631.868	10375.071	1468.141	366.324	181.085	640.565
168.247	573.700	3427.555	4555.584	1592.857	10282.719	1471.134	360.491	181.709	622.607
169.211	576.700	3418.474	4554.692	1566.607	10269.142	1455.660	362.095	181.416	613.233
170.170	579.700	3387.728	4505.008	1551.081	10229.163	1435.689	360.121	181.582	604.241
171.127	582.300	3419.009	4534.951	1520.603	10212.529	1429.779	360.312	181.454	587.467
172.082	585.300	3380.392	4497.226	1515.788	10156.870	1431.308	364.362	179.009	587.798
173.038	588.300	3370.789	4489.087	1495.728	10141.154	1412.801	357.357	179.289	580.016
173.996	591.200	3357.937	4512.140	1496.938	10135.804	1405.427	361.204	181.161	568.056
174.968	593.900	3359.937	4477.255	1493.118	10099.684	1402.867	360.516	180.792	566.197
175.926	596.800	3358.434	4449.145	1468.103	10131.143	1400.243	351.983	179.646	561.714
176.890	599.800	3362.077	4440.981	1463.696	10130.659	1399.505	349.232	179.684	560.007
177.848	602.800	3361.949	4425.545	1437.217	10128.978	1393.022	352.365	181.251	551.244
178.806	605.400	3360.141	4422.692	1441.739	10086.030	1379.266	349.817	176.487	545.577
179.763	608.400	3388.594	4425.825	1420.189	10116.496	1385.418	349.015	179.518	542.596
180.724	611.300	3382.430	4425.698	1417.310	10134.926	1386.615	346.926	178.168	543.437
181.682	614.000	3383.016	4382.254	1402.574	10070.632	1377.381	349.677	175.888	536.763
182.639	616.900	3390.594	4427.659	1395.072	10063.589	1377.471	348.735	178.028	545.806
183.599	619.900	3400.133	4417.343	1383.508	10057.603	1374.427	352.734	177.990	531.974
184.559	622.900	3397.752	4401.053	1393.608	10111.172	1368.453	350.543	178.831	533.795
185.512	625.500	3379.577	4403.574	1389.557	10085.903	1359.869	344.774	179.888	534.076
186.471	628.500	3401.853	4384.597	1396.486	10065.894	1352.214	348.136	177.417	530.764
187.432	631.400	3397.051	4351.482	1391.761	10053.310	1353.348	344.621	178.818	525.109
188.390	634.100	3414.194	4376.166	1390.844	10139.651	1352.902	346.226	178.576	523.352
189.353	637.000	3410.042	4359.621	1380.566	10143.026	1361.550	344.213	177.748	525.848
190.312	640.000	3416.652	4363.760	1371.472	10162.997	1353.539	339.195	177.939	520.511
191.275	643.000	3447.156	4349.839	1358.837	10158.896	1352.240	338.800	177.149	520.015
192.236	645.600	3436.967	4347.126	1348.521	10122.750	1349.629	339.819	176.806	517.238
193.198	648.600	3434.789	4342.439	1348.826	10116.228	1360.951	338.609	177.035	516.487
194.145	651.600	3427.198	4331.053	1338.777	10108.650	1350.406	344.264	179.085	518.970
195.100	654.200	3436.763	4331.754	1342.789	10103.186	1339.618	345.105	175.876	520.830
196.058	657.200	3435.579	4326.022	1341.146	10084.693	1344.458	341.615	177.710	515.633
197.016	660.100	3431.134	4287.902	1352.252	10065.461	1328.537	336.763	178.398	513.073
197.972	663.100	3436.483	4303.020	1347.451	10094.526	1333.925	338.253	178.436	514.818
199.045	666.100	3432.700	4320.062	1346.636	10109.185	1332.371	337.641	178.436	513.048
200.002	669.000	3444.545	4294.079	1356.710	10091.010	1326.130	340.940	177.863	511.201
200.962	672.000	3429.071	4310.688	1352.151	10124.851	1328.231	341.755	176.729	508.883
201.917	674.600	3426.332	4295.506	1351.628	10178.357	1324.194	334.572	177.570	506.871
202.878	677.600	3417.901	4283.788	1353.704	10194.647	1318.857	334.419	176.462	506.641
203.831	680.600	3394.886	4281.152	1348.864	10160.526	1324.856	327.529	176.742	510.781
204.789	683.200	3412.386	4270.160	1333.084	10194.035	1324.385	330.140	173.863	507.456
205.745	686.200	3420.448	4297.760	1336.739	10186.113	1330.855	333.655	174.335	504.871
206.706	689.200	3412.284	4246.254	1324.156	10200.556	1332.600	329.783	176.169	507.329
207.654	692.100	3372.342	4269.944	1330.307	10098.092	1316.743	333.578	175.799	509.469
208.610	694.700	3373.489	4266.097	1332.868	10114.433	1328.881	332.368	176.551	515.455
209.567	697.700	3343.010	4261.041	1338.344	10071.422	1319.876	334.024	174.679	511.099
210.525	700.700	3352.499	4272.198	1342.827	10071.689	1315.737	332.216	175.112	509.061
211.483	703.300	3300.190	4246.942	1333.797	10093.316	1307.930	330.993	174.984	511.303
212.453	706.300	3282.856	4262.900	1344.458	10096.372	1302.364	331.681	175.812	508.144
213.411	709.300	3279.978	4258.035	1349.387	10132.353	1304.567	328.611	174.003	507.062
214.368	712.200	3226.841	4240.586	1335.848	10128.290	1311.700	327.312	172.857	504.107
215.322	714.900	3217.136	4250.890	1336.090	10079.713	1301.752	324.663	174.679	506.412
216.277	717.800	3222.867	4241.478	1332.753	10097.773	1315.559	329.172	171.902	511.239
217.232	720.800	3214.652	4214.782	1325.289	10054.406	1324.105	325.389	172.602	505.037
218.184	723.400	3178.570	4388.252	1321.392	10094.373	1322.042	326.561	171.443	504.362
219.168	726.400	3132.133	4221.825	1333.517	10028.029	1305.535	326.344	172.068	513.290
220.126	729.300	3119.244	4222.309	1325.735	10032.359	1304.962	328.993	173.112	508.310
221.077	732.300	3099.133	4197.473	1334.154	10043.631	1304.529	324.090	170.717	514.041
222.033	734.900	3064.935	4191.232	1341.223	10036.053	1296.467	326.675	171.061	508.463
222.981	737.900	3055.765	4230.168	1335.631	9935.600	1300.160	327.185	172.029	506.272
223.932	740.900	3061.102	4213.152	1343.604	10004.135	1296.416	324.790	171.163	507.877
224.892	743.500	3023.364	4213.483	1335.275	10083.407	1285.080	322.663	171.354	503.967
225.850	746.500	3020.778	4199.473	1336.854	10062.302	1293.079	321.071	172.348	509.545
226.807	749.400	3000.846	4201.256	1337.886	10073.905	1303.395	317.849	169.380	509.838
227.814	752.400	2988.657	4199.982	1339.261	10053.565	1295.575	319.721	169.367	508.794
228.776	755.400	2994.809	4202.975	1330.269	10084.782	1299.995	320.116	168.718	503.737
229.735	758.000	2962.942	4211.980	1331.186	10105.326	1298.696	323.262	168.731	510.360
230.694	761.000	2961.757	4217.801	1324.869	10077.242	1293.856	325.172	168.259	508.195
231.653	763.900	2965.375	4218.017	1319.023	10013.509	1301.217	323.835	168.731	512.462
232.626	766.900	2964.712	4211.636	1321.061	10043.542	1304.605	323.135	170.081	506.654
233.593	769.500	2957.376	4198.772	1328.970	10030.538	1299.613	323.911	166.553	503.062
234.553	772.500	2940.156	4191.118	1332.524	10112.751	1292.264	323.351	167.788	512.143
235.524	775.500	2930.146	4195.958	1355.029	10103.377	1282.660	319.963	169.125	510.475
236.489	778.500	2909.984	4196.429	1343.464	10103.263	1281.259	324.727	168.336	503.483
237.459	781.400	2901.043	4186.851	1342.891	10108.281	1288.863	321.071	168.170	506.246
238.446	784.000	2880.945	4178.076	1342.305	10145.242	1290.188	323.682	168.692	507.418
239.411	787.000	2876.538	4195.983	1345.553	10179.287	1283.043	323.224	169.457	503.865
240.370	790.000	2906.940	4163.925	1339.134	10266.277	1294.098	318.180	166.871	502.438
241.328	793.000	2874.385	4183.107	1333.543	10246.497	1284.087	315.951	166.756	506.590
242.284	795.600	2892.357	4177.821	1328.359	10265.041	1290.455	319.632	167.572	504.629
243.238	798.500	2882.817	4158.907	1329.110	10304.091	1301.485	319.670	166.782	505.202
244.195	801.500	2901.489	4174.166	1321.086	10353.649	1297.588	318.728	165.101	506.438
245.152	804.100	2898.827	4184.367	1314.718	10341.192	1299.460	319.887	165.572	505.559
246.111	807.100	2879.888	4187.806	1317.163	10311.465	1308.172	320.676	165.521	508.807
247.066	810.100	2875.965	4165.275	1311.292	10359.953	1302.568	323.326	163.840	508.679
248.025	813.000	2890.128	4168.549	1325.086	10404.442	1290.672	322.854	165.916	511.876
248.983	815.700	2876.423	4195.410	1334.358	10473.511	1285.424	316.652	167.100	506.183
249.943	818.600	2855.828	4153.265	1333.122	10448.548	1294.276	319.772	164.438	500.757
250.897	821.600	2853.307	4153.634	1331.708	10530.329	1286.902	317.709	165.852	501.585
251.852	824.200	2846.251	4147.585	1319.252	10655.834	1288.188	321.504	165.139	497.318
252.805	827.200	2843.232	4195.588	1324.984	10664.201	1296.467	315.531	165.687	498.286
253.762	830.200	2836.036	4148.043	1306.872	10676.199	1315.329	316.410	163.470	496.796
