Wed, Oct 18, 2017	2:29 PM
 Notes: GUA_6.5E-10_30 sec_0.0015L_101817
 waiting time: 50.000
 time(s)	 temp (K)	 MS1=1.971	 MS2=14.708	 MS3=27.883	 MS4=125.586	 MS5=109.505	 MS6=125.586	 MS7=109.505	 MS8=125.586
0.000	99.400	4000.573	905.248	15785.362	47.653
1.531	99.400	4007.150	913.217	15650.534	47.145
2.433	99.400	4012.245	912.763	15709.504	50.732
3.290	99.400	4028.011	922.009	15973.390	52.692
4.162	99.400	4033.432	905.791	16033.188	51.405
5.043	99.400	4046.268	909.636	15813.497	54.280
5.921	99.400	4053.604	925.752	15819.916	55.504
6.813	99.400	4047.093	917.521	15998.685	58.157
7.712	99.400	4055.759	922.671	16104.729	60.227
8.609	99.400	4044.975	902.776	16017.891	60.312
9.477	99.400	4063.076	918.927	15854.572	60.550
10.380	99.400	4035.732	913.285	15775.771	62.840
11.247	99.400	4030.249	901.952	16010.759	64.474
12.152	99.400	4050.840	909.871	16032.487	68.375
13.015	99.400	4033.282	910.475	15654.610	67.581
13.925	99.400	4012.622	890.037	15696.640	68.156
14.791	99.400	4031.930	924.941	15929.488	70.374
15.701	99.500	4023.881	917.969	15949.191	68.575
16.567	99.600	4021.830	1003.730	16560.082	71.791
17.466	99.900	4045.876	1051.613	18766.736	76.202
18.333	100.500	4118.044	1157.514	20571.605	79.483
19.199	101.500	4105.173	1302.271	20051.627	80.583
20.095	103.100	4143.112	1436.988	21027.277	83.676
20.996	105.600	4180.118	1589.779	21642.091	83.694
21.870	108.200	4219.653	1720.689	21544.453	85.410
22.735	111.700	4196.266	1770.887	21315.719	87.600
23.597	115.500	4195.209	1874.208	20603.523	89.979
24.498	119.500	4212.132	1915.977	19898.904	92.168
25.402	124.100	4190.584	1887.103	19663.916	94.720
26.339	127.900	4212.038	1836.276	19487.020	95.173
27.245	131.700	4191.225	1745.213	19554.689	96.457
28.144	135.700	4151.191	1692.282	19386.771	99.371
29.049	139.200	4147.349	1674.880	19053.064	98.919
29.918	142.600	4143.835	1588.640	18782.325	103.268
30.784	146.000	4132.024	1576.163	19084.561	103.462
31.687	149.200	4123.533	1522.586	18916.644	105.082
32.566	152.500	4123.600	1470.737	18703.257	106.922
33.469	155.600	4124.144	1439.767	18451.330	107.875
34.349	158.700	4121.501	1410.703	18379.407	112.335
35.219	161.800	4112.957	1357.951	18622.215	112.302
36.107	164.700	4099.808	1334.066	18663.214	111.293
37.005	167.700	4110.526	1316.174	18276.395	114.928
37.875	170.600	4117.544	1271.790	18221.081	117.683
38.739	173.400	4116.052	1235.135	18544.293	116.351
39.604	176.200	4084.710	1203.617	18340.867	121.968
40.471	179.000	4096.541	1241.430	18266.550	119.902
41.338	181.400	4078.180	1217.921	18192.729	124.323
42.204	184.200	4091.538	1185.936	18386.400	126.906
43.069	186.900	4092.473	1165.710	18139.300	128.616
43.933	189.600	4113.175	1208.176	18074.217	126.433
44.799	192.300	4145.364	1168.489	18182.667	129.774
45.667	195.000	4118.734	1164.507	18247.292	137.866
46.536	197.700	4168.287	1148.333	17810.483	138.962
47.446	200.400	4168.893	1138.930	17773.433	139.359
48.345	203.100	4218.623	1116.491	17650.488	140.503
49.251	205.700	4226.505	1137.488	18013.922	144.073
50.117	208.400	4257.531	1146.823	18065.989	150.519
51.023	211.400	4291.205	1137.333	17722.640	153.699
51.891	213.700	4324.797	1114.370	17606.076	161.136
52.777	216.300	4365.432	1099.889	17863.568	167.524
53.674	219.300	4359.530	1075.263	17750.800	176.229
54.560	222.000	4385.211	1076.877	17565.395	182.563
55.427	224.600	4450.329	1085.354	17456.499	185.802
56.293	226.900	4496.975	1080.833	17701.000	187.981
57.160	229.600	4511.291	1062.965	17691.524	190.386
58.027	232.200	4508.787	1057.967	17322.715	187.161
58.892	234.900	4587.838	1088.850	17376.195	185.167
59.758	237.500	4580.185	1048.133	17611.527	181.213
60.655	240.100	4613.214	1055.026	17605.706	179.758
61.521	242.800	4652.788	1088.137	17353.754	182.373
62.387	245.400	4648.875	1081.135	17343.183	184.666
63.279	248.000	4674.409	1074.890	17613.272	182.099
64.146	250.600	4670.102	1099.993	17595.504	182.814
65.014	253.300	4662.085	1111.044	17416.303	187.479
65.915	255.900	4728.945	1134.635	17461.899	186.124
66.809	258.500	4739.511	1129.946	17553.334	183.680
67.676	261.200	4756.541	1104.748	17679.094	186.101
68.577	263.800	4776.266	1106.960	17523.684	189.070
69.444	266.500	4849.213	1123.347	17315.761	190.509
70.343	269.100	4892.522	1118.711	17278.507	195.991
71.210	271.800	4924.670	1148.923	17674.228	197.901
72.078	274.400	5042.079	1203.538	17655.009	197.801
72.946	277.100	5123.862	1214.251	17514.552	201.353
73.811	279.700	5185.007	1205.227	17507.890	197.001
74.697	282.400	5222.023	1157.513	17649.622	199.194
75.591	285.000	5312.248	1175.019	17535.452	203.265
76.456	287.700	5371.018	1169.476	17261.033	206.418
77.324	290.300	5516.858	1243.361	17570.223	210.108
78.206	293.000	5617.963	1222.772	17657.404	211.464
79.102	295.600	5694.693	1231.762	17659.581	210.183
79.976	298.200	5821.782	1244.829	17365.955	212.648
80.856	300.900	5950.352	1258.572	17293.396	216.047
81.759	303.500	6093.865	1264.452	17553.359	220.357
82.644	306.200	6264.342	1304.407	17763.995	219.502
83.536	308.800	6451.670	1296.885	17355.792	224.732
84.400	311.400	6625.453	1340.754	17378.870	223.935
85.298	314.100	6822.220	1339.804	17642.196	225.994
86.163	316.700	7003.341	1344.914	17597.109	227.650
87.064	319.300	7133.270	1355.637	17431.714	228.645
87.947	322.000	7319.240	1389.396	17311.354	232.932
88.847	324.600	7400.283	1381.385	17225.078	227.787
89.715	327.300	7467.552	1418.193	17637.102	236.088
90.612	329.900	7478.619	1478.461	17670.930	234.827
91.515	332.900	7377.852	1432.512	17339.655	234.678
92.392	335.500	7271.999	1455.627	17387.888	232.057
93.259	337.800	7086.825	1415.451	17664.740	232.592
94.158	340.800	6879.543	1403.708	17641.776	235.238
95.024	343.400	6650.282	1332.418	17247.481	235.918
95.891	345.700	6478.546	1365.487	17364.911	237.439
96.788	348.700	6355.041	1328.470	17671.847	237.075
97.655	351.000	6231.520	1269.277	17645.686	241.966
98.523	353.700	6179.322	1265.181	17301.076	242.581
99.389	356.300	6143.872	1220.563	17244.844	241.817
100.257	358.900	6183.185	1190.230	17476.495	246.102
101.152	361.600	6237.190	1182.024	17477.730	243.067
102.020	364.200	6360.027	1176.874	17182.105	244.728
102.927	366.900	6499.435	1155.001	17113.379	241.936
103.795	369.500	6671.961	1129.536	17378.157	248.804
104.662	372.100	6902.386	1141.033	17449.583	247.893
105.532	374.800	7023.102	1160.810	17232.032	244.847
106.398	377.400	7218.716	1145.250	17240.998	250.428
107.295	380.000	7344.989	1136.882	17602.904	249.876
108.169	382.700	7498.326	1144.455	17671.197	248.861
109.036	385.300	7552.639	1112.627	17391.174	251.098
109.902	388.000	7693.730	1132.688	17471.770	252.663
110.769	390.600	7742.809	1109.719	17974.910	256.931
111.636	393.200	7841.290	1124.074	18339.580	255.819
112.502	395.600	7866.731	1126.576	18385.432	259.208
113.403	398.500	7948.935	1161.942	18824.368	264.782
114.271	400.800	7801.253	1130.469	19601.864	263.647
115.141	403.500	7720.339	1142.191	20128.300	265.574
116.009	406.100	7435.850	1133.194	20327.218	271.062
116.917	409.000	7214.963	1166.287	20936.097	269.308
117.784	411.300	6996.073	1143.814	21674.161	271.471
118.672	414.000	6708.005	1143.935	22106.640	273.732
119.541	416.600	6431.042	1157.888	22120.930	271.282
120.450	419.600	6183.815	1154.358	22263.349	275.972
121.316	422.200	5972.944	1152.306	22734.267	278.569
122.180	424.500	5804.503	1134.103	23009.094	280.408
123.077	427.500	5680.894	1131.719	23035.509	279.660
123.955	430.100	5565.017	1150.152	22993.504	284.662
124.831	432.700	5563.739	1197.983	23410.980	278.799
125.700	435.000	5467.545	1173.051	23743.821	285.534
126.597	438.000	5397.103	1138.762	23895.984	284.074
127.464	440.300	5371.255	1169.377	23641.115	286.253
128.358	443.300	5380.761	1162.254	23705.013	291.067
129.225	445.600	5355.227	1159.767	24270.091	293.980
130.094	448.300	5336.098	1169.399	24415.937	291.592
130.994	451.200	5314.002	1189.388	24121.164	292.300
131.876	453.900	5312.323	1184.225	24244.007	294.622
132.744	456.200	5296.708	1199.991	24742.359	296.992
133.611	458.800	5322.440	1193.573	24836.227	296.632
134.492	461.500	5282.777	1211.031	24547.364	299.886
135.361	464.100	5281.368	1195.724	24450.847	302.375
136.257	466.800	5308.898	1182.531	24896.903	301.125
137.150	469.400	5328.505	1193.482	24890.968	306.171
138.016	472.000	5343.180	1214.811	24593.495	304.922
138.885	474.700	5387.524	1206.079	24383.446	310.731
139.751	477.300	5407.219	1201.760	24763.833	308.184
140.619	479.900	5455.194	1212.218	24546.562	312.119
141.486	482.600	5459.277	1223.165	24004.600	310.856
142.355	485.200	5523.207	1253.400	23807.478	316.057
143.211	487.900	5569.487	1241.071	24035.410	315.404
144.063	490.200	5619.475	1258.562	23125.569	315.890
144.995	493.100	5642.594	1249.214	22370.030	312.784
145.892	495.800	5641.265	1258.604	21785.707	319.527
146.761	498.400	5687.568	1240.674	21701.812	317.159
147.627	501.100	5719.831	1267.911	21168.932	321.965
148.513	503.700	5749.248	1265.254	20205.266	320.190
149.383	506.300	5744.685	1262.065	19692.535	321.766
150.250	509.000	5694.965	1240.911	19495.362	317.955
151.116	511.300	5755.579	1263.769	19065.112	322.735
151.982	513.900	5734.242	1287.139	18382.617	320.467
152.892	516.900	5802.937	1301.164	18043.280	323.287
153.757	519.200	5698.165	1243.992	17965.677	324.486
154.624	521.800	5744.869	1274.629	17827.970	326.469
155.491	524.500	5752.779	1281.017	17316.143	329.329
156.360	527.100	5757.573	1284.778	17280.634	328.238
157.261	529.700	5752.090	1329.656	17506.196	330.639
158.127	532.400	5791.547	1329.284	17417.232	330.596
159.025	535.000	5733.863	1328.394	17062.178	335.832
159.905	537.600	5719.442	1331.049	17011.054	341.574
160.773	540.300	5717.960	1328.609	17208.647	341.036
161.641	542.900	5666.846	1334.578	17165.305	339.641
162.507	545.600	5589.855	1346.995	16784.014	340.100
163.375	548.200	5588.735	1341.164	16839.061	348.068
164.242	550.900	5507.881	1327.892	17079.194	345.135
165.110	553.500	5423.707	1331.112	17012.430	348.011
165.976	556.100	5356.059	1329.197	16625.726	348.652
166.874	558.800	5291.224	1327.215	16597.323	347.985
167.741	561.400	5225.012	1351.533	17031.063	349.293
168.608	563.700	5166.422	1321.130	16923.975	351.938
169.474	566.400	5151.711	1360.422	16653.147	355.054
170.341	569.000	5104.025	1356.979	16683.689	354.372
171.208	571.600	5053.397	1330.971	16848.181	358.346
172.076	574.200	5027.020	1352.752	16708.054	357.387
172.943	576.900	5020.029	1349.230	16523.758	362.438
173.811	579.600	4999.408	1339.737	16674.736	366.571
174.678	582.200	5012.024	1342.243	16870.737	361.850
175.544	584.800	5034.775	1336.263	16469.169	366.913
176.430	587.500	5010.775	1367.886	16503.698	368.505
177.297	589.800	5017.034	1375.250	16821.421	376.270
178.165	592.400	5005.252	1348.329	16794.000	368.889
179.032	595.000	5013.764	1367.309	16534.673	374.566
179.902	597.700	5005.243	1377.364	16610.799	378.246
180.807	600.300	5040.255	1392.859	16879.334	380.622
181.675	603.000	5038.231	1386.432	16880.149	381.988
182.576	605.600	5050.837	1387.402	16754.784	384.674
183.442	608.200	5056.757	1382.839	16555.370	385.396
184.309	610.900	5035.005	1375.078	16798.941	386.878
185.178	613.500	5073.763	1414.418	16976.768	381.189
186.045	616.100	5070.342	1397.535	16600.380	394.059
186.913	618.800	5066.754	1393.402	16589.465	388.344
187.780	621.400	5061.233	1402.043	16844.602	396.529
188.673	624.000	5083.468	1406.764	16926.153	398.460
189.540	626.700	5067.365	1409.669	16562.324	398.149
190.408	629.300	5100.310	1431.317	16617.676	403.171
191.277	631.900	5091.900	1424.736	16914.856	401.376
192.174	634.600	5139.047	1446.765	16922.358	405.653
193.042	637.200	5118.279	1436.113	16696.146	406.007
193.941	639.800	5082.178	1444.960	16727.668	412.882
194.806	642.500	5124.064	1444.749	16979.124	416.244
195.675	645.100	5135.591	1457.379	17050.716	414.660
196.571	647.800	5174.766	1476.440	16937.972	415.514
197.439	650.400	5179.746	1510.571	16927.911	420.198
198.305	652.700	5179.040	1462.763	17074.915	427.706
199.171	655.400	5188.178	1477.607	17131.783	420.324
200.037	658.000	5214.063	1514.739	16955.447	428.811
200.933	660.600	5181.256	1522.450	16970.119	437.482
201.797	663.200	5207.429	1501.504	17237.546	432.556
202.664	665.900	5213.254	1516.696	17263.554	434.967
203.529	668.500	5244.039	1526.142	16999.120	442.272
204.390	671.200	5200.147	1535.420	16915.276	439.881
205.260	673.800	5208.583	1528.798	17287.639	442.530
206.130	676.500	5248.240	1543.906	17343.055	443.261
207.067	679.100	5223.337	1557.282	17122.575	444.005
207.933	681.700	5208.092	1584.610	17099.038	451.504
208.802	684.300	5185.058	1562.914	17303.942	449.759
209.669	687.000	5169.638	1563.596	17289.613	462.644
210.539	689.600	5096.675	1590.607	17046.563	456.943
211.409	692.300	5060.838	1574.365	17082.964	455.071
212.401	695.200	4987.915	1576.689	17009.921	463.593
213.268	697.500	4957.843	1555.728	17250.983	462.684
214.139	700.200	4906.410	1567.429	17325.555	456.984
215.009	702.800	4840.615	1586.540	17066.318	465.018
215.885	705.400	4794.484	1596.515	17084.556	465.358
216.756	708.100	4739.906	1578.400	17387.938	467.626
217.626	710.700	4652.632	1576.777	17359.842	475.245
218.483	713.300	4599.213	1627.290	17112.666	482.358
219.344	716.000	4563.961	1637.059	17233.968	473.267
220.211	718.600	4505.500	1587.691	17292.453	475.390
221.077	720.900	4446.295	1611.906	17236.477	482.167
221.942	723.600	4426.835	1628.793	17167.305	485.932
222.823	726.200	4424.850	1632.078	17214.672	490.189
223.778	729.100	4388.934	1612.293	17332.560	493.496
224.675	731.800	4389.088	1639.939	17398.777	495.826
225.542	734.500	4370.953	1636.739	17096.783	494.263
226.428	737.100	4336.198	1621.392	17037.915	497.873
227.295	739.700	4339.541	1631.615	17412.507	500.555
228.162	742.300	4351.327	1647.253	17432.656	499.630
229.026	745.000	4343.785	1655.848	17143.386	508.401
229.893	747.600	4366.928	1644.395	17126.128	509.369
230.759	749.900	4313.077	1619.337	17429.345	509.611
231.641	752.900	4327.021	1642.115	17458.397	508.183
232.509	755.200	4331.419	1685.804	17273.476	512.009
233.375	757.800	4330.263	1664.570	17294.491	516.696
234.242	760.400	4322.818	1663.258	17604.382	513.111
235.107	763.100	4342.842	1675.687	17660.218	522.975
235.975	765.700	4325.801	1693.498	17337.324	519.532
236.841	768.300	4303.361	1681.308	17417.997	520.136
237.707	771.000	4323.221	1670.584	17571.662	519.377
238.572	773.600	4350.698	1685.921	17497.077	527.088
239.437	776.000	4327.197	1718.926	17367.726	530.549
240.308	778.600	4331.833	1708.636	17611.323	524.833
241.175	781.200	4308.962	1686.665	17689.359	532.311
242.043	783.800	4312.667	1715.042	17452.041	534.661
242.910	786.500	4314.545	1723.960	17511.520	534.012
243.774	789.100	4314.790	1702.873	17875.617	541.391
244.639	791.800	4343.502	1715.372	17928.754	538.823
245.505	794.400	4315.533	1736.226	17613.577	543.952
246.370	796.700	4326.379	1736.376	17690.799	550.491
247.234	799.300	4322.156	1729.924	17956.226	543.705
248.101	802.000	4298.649	1720.038	18015.260	548.113
248.968	804.600	4325.675	1736.411	17838.388	550.152
