Thu, Sep 28, 2017	12:19 PM
 Notes: furfural_1.7E-09_30s_92817
 waiting time: 50.000
 time(s)	 temp (K)	 MS1=1.879	 MS2=27.844	 MS3=97.084	 MS4=40.816	 MS5=77.304	 MS6=91.453	 MS7=78.423	 MS8=97.084
0.000	100.200	2528.922	6753.946	233.967
0.385	100.200	2461.788	6696.568	235.482
0.742	100.200	2455.318	6770.694	230.923
5.526	100.300	2462.973	6674.139	230.515
5.882	100.300	2416.561	6632.300	220.313
6.241	100.300	2442.938	6659.582	226.147
6.607	100.300	2460.744	6716.514	230.286
6.974	100.300	2473.085	6642.413	225.446
7.327	100.300	2440.849	6686.035	225.752
7.685	100.300	2465.240	6749.361	225.981
8.059	100.400	2477.874	6874.611	223.867
8.418	100.400	2465.074	6772.898	225.051
8.773	100.400	2460.120	6925.175	231.687
9.131	100.500	2537.417	7117.330	230.693
9.491	100.600	2517.319	7300.747	233.470
9.848	100.800	2494.686	7646.542	241.672
10.204	101.000	2512.887	8324.134	245.837
10.566	101.300	2543.798	9017.964	260.497
10.928	101.600	2579.002	9235.936	256.752
11.292	102.000	2532.297	9066.847	256.064
11.655	102.600	2549.606	8830.828	205.437
12.022	103.200	2605.468	8652.123	252.218
12.383	103.800	2579.753	8854.772	256.357
12.743	104.600	2590.464	9187.881	254.893
13.109	105.800	2614.676	9415.214	259.643
13.473	106.700	2628.279	9575.503	274.481
13.836	107.800	2597.342	9677.904	263.745
14.204	109.300	2579.027	9834.829	263.311
14.571	110.600	2643.512	9772.421	267.171
14.939	111.900	2658.286	9636.676	268.317
15.301	113.700	2622.446	9496.320	260.904
15.669	115.100	2611.110	9489.888	258.102
16.036	116.500	2656.223	9235.465	256.179
16.403	118.400	2621.860	9092.880	256.294
16.762	119.900	2622.382	9053.576	257.898
17.128	121.300	2629.374	8914.430	249.110
17.503	123.200	2642.888	8784.887	255.542
17.870	124.600	2611.556	8688.167	248.079
18.237	126.000	2588.605	8745.557	250.842
18.604	127.900	2648.759	8695.541	248.015
18.968	129.200	2651.803	8560.089	249.824
19.330	130.500	2613.352	8520.644	241.418
19.695	132.300	2591.585	8593.599	248.588
20.058	133.600	2640.366	8511.551	250.384
20.425	134.900	2643.474	8437.068	245.366
20.791	136.600	2608.104	8438.176	243.353
21.155	137.900	2660.986	8408.423	239.838
21.521	139.200	2666.170	8304.774	249.747
21.900	140.900	2628.738	8278.614	241.290
22.267	142.100	2586.491	8316.479	243.252
22.634	143.400	2645.168	8247.919	234.705
22.998	145.000	2671.048	8184.262	238.615
23.361	146.300	2613.849	8055.165	242.513
23.723	147.500	2589.509	8145.734	238.017
24.089	149.100	2646.046	8089.541	248.805
24.449	150.300	2650.924	8022.751	243.468
24.813	151.500	2592.413	8016.166	245.302
25.179	153.100	2621.299	8041.881	257.058
25.546	154.300	2652.606	7982.109	261.083
25.907	155.400	2627.757	7915.001	265.426
26.273	156.600	2580.237	7937.035	276.455
26.639	158.100	2651.931	7949.453	291.179
27.006	159.300	2635.755	7803.748	299.967
27.385	160.800	2582.262	7826.699	312.844
27.754	161.900	2581.829	7860.858	327.197
28.119	163.000	2624.917	7864.450	342.481
28.482	164.500	2638.825	7802.958	341.985
28.847	165.600	2561.336	7780.695	349.499
29.212	166.700	2600.819	7861.953	356.670
29.580	168.100	2630.100	7804.601	356.912
29.943	169.200	2601.329	7651.140	363.293
30.306	170.300	2586.414	7687.349	372.832
30.673	171.400	2593.228	7796.679	393.847
31.039	172.800	2626.649	7694.405	400.903
31.408	173.800	2557.413	7680.383	388.982
31.774	175.300	2556.076	7697.946	375.354
32.136	176.300	2599.902	7702.442	364.999
32.497	177.400	2585.637	7630.163	365.674
32.859	178.400	2574.544	7582.936	362.121
33.223	179.800	2567.386	7676.103	365.381
33.588	180.900	2589.395	7703.881	363.165
33.957	181.900	2588.248	7598.678	372.259
34.322	183.300	2575.092	7621.706	382.690
34.689	184.300	2571.424	7674.537	407.768
35.053	185.300	2621.198	7644.020	420.288
35.418	186.700	2557.643	7557.489	447.633
35.786	187.700	2543.696	7659.699	478.277
36.149	188.700	2587.994	7680.688	510.220
36.516	190.100	2585.688	7621.986	554.288
36.882	191.100	2561.387	7605.059	607.234
37.248	192.100	2553.618	7699.449	652.372
37.610	193.500	2582.759	7731.226	713.736
37.974	194.500	2567.361	7673.683	777.520
38.339	195.500	2550.256	7703.703	857.913
38.705	196.900	2558.076	7793.712	924.703
39.068	197.900	2582.071	7806.244	1003.669
39.436	198.900	2574.378	7747.453	1092.607
39.805	200.200	2542.257	7820.726	1189.213
40.167	201.200	2569.908	7925.279	1254.335
40.533	202.200	2556.751	7900.392	1320.832
40.900	203.200	2555.337	7886.930	1349.934
41.276	204.600	2549.963	7922.222	1334.561
41.639	205.600	2554.624	7872.385	1262.779
42.004	206.900	2542.435	7765.653	1179.444
42.371	207.900	2532.807	7667.086	1074.802
42.738	208.900	2499.106	7715.382	965.523
43.106	210.200	2527.075	7650.910	882.354
43.491	211.200	2548.332	7524.246	819.487
43.858	212.200	2515.052	7543.287	793.135
44.219	213.500	2511.906	7583.980	754.709
44.585	214.500	2518.198	7583.700	718.983
44.952	215.500	2550.816	7516.541	691.600
45.318	216.900	2520.809	7524.514	677.743
45.686	217.800	2536.042	7579.841	656.116
46.051	218.800	2537.570	7538.435	635.929
46.417	220.200	2523.827	7475.810	623.600
46.785	221.200	2526.884	7536.868	598.955
47.154	222.200	2515.880	7542.243	585.251
47.521	223.500	2568.329	7431.538	561.930
47.887	224.500	2513.587	7456.463	555.638
48.249	225.500	2516.338	7516.401	543.857
48.615	226.800	2538.181	7500.060	521.377
48.983	227.800	2568.163	7466.066	502.642
49.351	228.800	2515.536	7436.785	495.433
49.715	230.100	2525.101	7509.383	490.848
50.082	231.100	2550.370	7499.385	473.781
50.447	232.100	2554.166	7437.104	471.068
50.810	233.400	2530.820	7470.078	462.204
51.176	234.400	2508.633	7517.967	457.020
51.543	235.400	2550.179	7483.108	441.800
51.911	236.700	2539.493	7433.754	434.273
52.275	237.700	2508.773	7494.125	433.649
52.643	238.700	2544.142	7505.282	423.396
53.011	240.000	2563.680	7381.343	414.493
53.379	241.000	2521.115	7370.352	413.130
53.749	242.000	2493.782	7445.446	406.902
54.116	243.300	2552.777	7460.985	397.159
54.480	244.300	2561.706	7366.060	394.955
54.842	245.300	2505.079	7367.856	394.752
55.208	246.600	2492.852	7415.719	389.313
55.574	247.600	2549.695	7440.810	392.026
55.940	248.600	2526.884	7318.031	383.327
56.304	249.600	2513.778	7355.514	378.309
56.670	250.900	2541.085	7390.106	378.003
57.036	251.900	2554.968	7337.110	376.895
57.400	252.900	2513.014	7334.028	372.425
57.766	254.200	2495.476	7414.828	374.424
58.135	255.200	2558.369	7462.309	370.438
58.502	256.200	2572.621	7342.192	365.063
58.865	257.500	2518.325	7361.602	370.565
59.230	258.500	2490.789	7435.104	370.234
59.597	259.500	2550.103	7419.209	372.119
59.964	260.800	2559.642	7341.326	367.101
60.331	261.800	2495.272	7353.081	368.973
60.695	262.800	2533.953	7404.486	362.083
61.063	264.100	2559.846	7411.019	365.929
61.425	265.100	2540.066	7303.231	372.437
61.791	266.100	2491.248	7380.134	363.675
62.160	267.400	2547.721	7436.161	377.685
62.523	268.400	2568.138	7344.433	365.929
62.887	269.400	2516.084	7321.304	367.483
63.252	270.700	2528.043	7401.773	365.509
63.618	271.700	2555.070	7432.633	368.757
63.981	272.700	2578.518	7342.854	360.300
64.345	274.000	2476.932	7340.549	359.752
64.711	275.000	2522.719	7435.996	360.121
65.077	276.000	2584.084	7407.262	353.205
65.441	277.300	2558.471	7325.214	350.301
65.806	278.300	2559.910	7321.138	348.149
66.173	279.300	2594.362	7381.331	348.900
66.533	280.300	2619.847	7300.034	339.399
66.900	281.600	2603.379	7267.976	342.481
67.267	282.600	2666.195	7378.516	338.928
67.627	283.600	2738.029	7372.874	344.455
67.987	284.900	2791.344	7298.136	339.883
68.355	285.900	2784.568	7278.802	347.869
68.719	286.900	2827.681	7381.878	350.938
69.088	288.200	2913.091	7357.132	341.819
69.456	289.200	2913.537	7330.665	337.106
69.822	290.200	2922.173	7294.137	332.878
70.188	291.500	2956.548	7368.671	337.769
70.551	292.500	3014.015	7329.544	328.777
70.918	293.500	3010.971	7313.063	332.776
71.287	294.800	3025.745	7402.435	339.017
71.648	295.800	3059.038	7403.683	329.133
72.013	296.800	3092.663	7335.785	327.465
72.382	298.100	3068.056	7343.020	334.152
72.748	299.100	3074.067	7428.443	325.453
73.111	300.100	3130.324	7435.066	326.153
73.476	301.400	3117.473	7305.638	319.212
73.843	302.400	3118.059	7351.591	325.746
74.211	303.400	3092.255	7418.674	326.140
74.572	304.700	3135.954	7403.989	317.747
74.932	305.700	3143.303	7304.212	316.626
75.294	306.700	3105.972	7399.085	319.326
75.655	307.700	3150.830	7397.366	317.097
76.012	309.000	3118.212	7276.217	313.773
76.370	310.000	3086.727	7340.128	314.270
76.734	310.900	3092.790	7405.772	309.647
77.097	312.300	3153.900	7404.842	308.577
77.462	313.300	3187.970	7303.244	313.875
77.820	314.200	3104.342	7326.271	315.123
78.178	315.200	3146.219	7384.999	308.488
78.543	316.600	3112.035	7323.813	305.635
78.906	317.500	3119.868	7341.440	307.583
79.268	318.500	3118.963	7402.804	309.341
79.630	319.900	3149.709	7376.784	302.145
79.996	320.800	3164.433	7292.761	302.998
80.362	321.800	3145.379	7301.486	308.055
80.722	322.800	3147.862	7425.424	306.055
81.091	324.100	3181.156	7411.733	300.744
81.457	325.100	3174.049	7373.128	305.444
81.823	326.400	3149.837	7350.381	300.744
82.188	327.400	3152.040	7395.761	295.738
82.554	328.400	3160.548	7357.896	303.036
82.919	329.400	3184.658	7352.241	303.788
83.281	330.700	3133.356	7425.501	301.750
83.643	331.700	3142.144	7441.472	299.254
84.006	332.700	3196.121	7343.605	299.470
84.373	334.000	3159.007	7349.770	296.350
84.735	335.000	3158.141	7448.681	300.642
85.102	336.000	3209.214	7425.743	295.458
85.472	337.300	3209.252	7374.300	291.981
85.837	338.300	3158.790	7356.278	294.898
86.205	339.300	3128.554	7450.095	291.739
86.571	340.600	3225.058	7425.845	291.077
86.937	341.600	3246.634	7388.858	293.102
87.299	342.600	3179.742	7414.293	289.536
87.667	343.900	3163.363	7470.664	293.510
88.033	344.900	3219.989	7417.095	288.479
88.401	345.900	3205.469	7448.592	289.561
88.771	347.200	3162.191	7464.474	295.191
89.142	348.200	3244.226	7490.928	290.962
89.509	349.200	3246.544	7401.531	294.758
89.878	350.500	3212.615	7397.264	291.230
90.245	351.500	3144.704	7448.350	288.071
90.610	352.500	3209.456	7502.403	283.397
90.976	353.800	3255.855	7424.329	284.989
91.342	354.800	3181.487	7425.972	282.544
91.706	355.800	3176.965	7493.080	283.537
92.073	357.100	3261.459	7507.040	282.824
92.442	358.100	3237.871	7465.111	281.614
92.805	359.100	3200.591	7527.711	279.691
93.173	360.400	3235.820	7534.932	275.513
93.541	361.400	3249.487	7564.010	280.875
93.905	362.400	3221.072	7547.949	273.934
94.272	363.700	3180.455	7590.922	275.946
94.643	364.700	3224.281	7643.434	269.412
95.010	365.700	3246.137	7561.781	268.839
95.376	367.000	3183.130	7565.907	269.349
95.745	368.000	3163.286	7702.901	272.444
96.114	369.000	3214.117	7734.563	270.495
96.482	370.300	3252.212	7653.725	265.668
96.850	371.300	3160.650	7723.075	262.560
97.216	372.300	3212.525	7806.996	264.050
97.584	373.600	3263.267	7868.245	272.787
97.945	374.600	3225.007	7810.536	263.299
98.312	375.600	3149.569	7824.750	269.196
98.679	376.900	3187.651	7938.640	278.430
99.044	377.900	3258.580	7935.175	269.298
99.413	378.900	3180.430	7974.595	272.176
99.775	380.200	3185.957	8080.269	269.310
100.139	381.200	3260.414	8167.819	267.884
100.501	382.200	3254.301	8133.444	265.935
100.869	383.500	3180.786	8207.073	268.253
101.235	384.500	3224.829	8366.380	267.285
101.603	385.500	3294.612	8414.919	271.960
101.968	386.800	3281.149	8374.634	267.222
102.336	387.800	3243.666	8461.751	260.191
102.703	388.800	3272.960	8666.630	272.087
103.064	390.100	3327.905	8737.317	268.355
103.431	391.100	3282.691	8735.788	268.839
103.801	392.100	3300.840	8927.752	269.973
104.168	393.400	3362.535	9077.711	271.590
104.531	394.400	3360.701	9082.704	274.685
104.892	395.400	3338.260	9171.579	273.781
105.260	396.700	3378.112	9415.966	282.633
105.623	397.700	3465.140	9503.083	279.347
105.992	398.700	3425.122	9575.197	271.768
106.360	400.000	3442.418	9714.865	272.202
106.727	401.000	3465.701	9911.821	289.943
107.087	402.000	3551.239	10075.090	275.042
107.456	403.300	3563.466	10030.525	278.442
107.823	404.300	3520.989	10189.896	284.276
108.195	405.300	3570.764	10436.970	281.754
108.561	406.600	3636.114	10563.201	286.173
108.928	407.600	3602.337	10755.038	283.422
109.299	408.600	3640.929	10850.459	290.720
109.664	409.900	3685.201	11014.072	291.930
110.030	410.900	3677.482	11096.706	290.415
110.397	411.900	3682.933	11191.618	287.447
110.766	413.200	3712.584	11434.871	290.618
111.130	414.200	3750.831	11552.849	292.300
111.495	415.200	3788.761	11520.091	291.370
111.864	416.500	3741.496	11751.270	304.883
112.231	417.500	3753.977	12009.909	296.082
112.602	418.400	3769.388	12089.155	300.069
112.969	419.800	3833.644	12082.138	293.955
113.335	420.800	3789.652	12206.369	301.916
113.699	421.700	3786.315	12428.429	302.680
114.065	423.100	3808.910	12491.805	302.552
114.430	424.000	3804.987	12482.597	309.659
114.797	425.000	3731.867	12584.680	305.011
115.164	426.300	3732.809	12728.640	301.215
115.534	427.300	3759.416	12643.955	300.973
115.901	428.300	3678.183	12759.258	301.674
116.262	429.600	3633.287	12878.166	313.264
116.622	430.600	3673.075	13004.422	303.622
116.988	431.600	3618.220	12905.154	300.757
117.354	432.900	3565.694	12993.571	310.283
117.720	433.900	3539.572	13175.676	310.003
118.084	434.900	3510.724	13213.211	308.042
118.448	435.900	3504.840	13200.321	308.182
118.815	437.200	3443.730	13228.826	307.061
119.180	438.200	3393.803	13397.915	308.462
119.549	439.200	3381.678	13340.919	309.889
119.916	440.500	3364.892	13394.221	304.272
120.281	441.500	3303.285	13575.945	314.295
120.644	442.500	3344.118	13646.912	313.748
121.012	443.800	3309.615	13538.219	315.722
121.378	444.800	3264.668	13696.814	322.485
121.746	445.800	3274.183	13880.843	315.085
122.110	447.100	3260.058	13990.134	323.364
122.476	448.100	3293.567	14001.228	316.703
122.841	449.100	3251.932	14125.153	332.878
123.201	450.400	3242.252	14451.970	317.352
123.568	451.400	3307.348	14526.440	318.448
123.935	452.400	3316.468	14552.423	323.071
124.302	453.700	3273.418	14747.099	321.390
124.663	454.700	3329.879	14966.319	329.299
125.031	455.700	3380.748	14973.694	326.230
125.401	457.000	3361.020	15139.802	340.214
125.763	458.000	3411.303	15422.806	337.323
126.129	459.000	3458.950	15517.413	342.405
126.494	460.300	3559.148	15556.373	347.805
126.860	461.300	3535.636	15615.942	344.519
127.224	462.300	3568.203	15917.681	346.952
127.590	463.600	3712.418	15990.954	344.099
127.958	464.600	3784.927	15951.254	357.943
128.317	465.600	3795.740	16056.254	334.050
128.680	466.600	3856.429	16311.517	344.723
129.047	467.900	4014.017	16304.321	356.033
129.414	468.900	4030.307	16268.799	341.118
129.776	469.900	4083.928	16489.802	344.888
130.143	471.200	4197.881	16494.056	352.021
130.510	472.200	4287.800	16385.223	351.893
130.875	473.200	4322.278	16389.643	346.404
131.245	474.500	4321.437	16551.956	350.836
131.613	475.500	4489.940	16384.943	345.143
131.980	476.500	4545.650	16218.529	350.174
132.338	477.800	4510.484	16140.836	340.787
132.705	478.800	4497.468	16242.792	342.863
133.072	479.800	4649.490	16099.749	336.724
133.438	481.100	4627.825	15693.532	333.782
133.800	482.100	4520.775	15625.647	327.108
134.168	483.100	4567.760	15450.584	328.586
134.535	484.400	4573.504	15067.357	331.986
134.903	485.400	4513.643	14772.165	324.778
135.274	486.400	4378.496	14727.893	317.543
135.640	487.700	4432.563	14394.555	307.316
136.008	488.700	4397.244	13887.962	315.913
136.369	489.700	4223.150	13621.350	301.826
136.736	491.000	4181.247	13507.754	299.827
137.105	492.000	4237.262	13203.633	298.197
137.471	493.000	4158.869	12771.944	291.102
137.833	494.300	4012.655	12472.612	282.493
138.200	495.300	3931.702	12224.315	282.200
138.565	496.300	3966.523	11952.837	289.307
138.928	497.600	3894.308	11587.734	282.200
139.293	498.600	3735.191	11447.391	271.998
139.659	499.600	3762.600	11178.130	279.550
140.027	500.900	3734.147	10814.109	267.807
140.388	501.900	3619.582	10563.278	257.440
140.755	502.900	3593.307	10392.125	256.268
141.121	504.200	3635.987	10190.660	261.910
141.489	505.200	3586.582	9851.833	251.900
141.858	506.200	3469.649	9627.353	249.149
142.224	507.500	3455.753	9554.793	243.213
142.590	508.500	3523.448	9314.444	243.035
142.953	509.500	3503.630	9047.908	237.813
143.318	510.800	3395.421	8858.937	234.896
143.688	511.800	3413.545	8781.219	239.775
144.053	512.800	3467.713	8559.885	233.011
144.419	514.100	3371.425	8354.001	223.395
144.787	515.100	3388.849	8260.184	222.415
145.156	516.100	3433.070	8236.940	231.279
145.518	517.400	3416.971	8054.210	224.121
145.886	518.400	3343.252	8024.318	218.581
146.255	519.400	3347.532	8014.243	222.504
146.620	520.700	3416.194	7973.843	218.237
146.983	521.700	3386.964	7843.868	218.275
147.344	522.700	3318.544	7800.997	220.199
147.710	523.700	3345.035	7844.454	229.738
148.071	525.000	3394.402	7866.131	218.887
148.437	526.000	3370.890	7796.768	219.116
148.805	526.900	3344.921	7827.145	215.359
149.171	528.300	3386.480	7810.995	222.899
149.530	529.200	3410.259	7745.937	216.951
149.896	530.200	3362.841	7728.845	218.543
150.263	531.600	3332.949	7778.721	229.471
150.626	532.600	3422.868	7774.008	217.613
150.996	533.500	3393.510	7682.268	218.849
151.361	534.900	3321.040	7692.890	215.881
151.724	535.900	3365.643	7797.494	221.676
152.088	536.900	3412.615	7776.683	215.512
152.452	538.200	3375.361	7671.225	215.206
152.817	539.200	3350.079	7707.524	219.727
153.185	540.200	3338.693	7777.307	218.530
153.549	541.500	3372.724	7715.866	215.346
153.917	542.500	3343.354	7645.039	212.824
154.284	543.500	3306.431	7762.609	221.587
154.646	544.800	3348.754	7779.982	217.091
155.012	545.800	3288.715	7695.985	215.690
155.380	546.700	3264.847	7687.286	222.173
155.748	548.100	3269.585	7748.242	215.359
156.113	549.000	3277.316	7693.323	222.224
156.473	550.000	3251.142	7617.605	215.117
156.842	551.000	3190.364	7610.498	223.867
157.203	552.300	3166.916	7710.797	218.110
157.566	553.300	3183.728	7698.086	212.085
157.933	554.300	3178.124	7610.141	210.519
158.301	555.600	3114.467	7697.997	216.836
158.663	556.600	3137.762	7700.290	214.353
159.033	557.600	3129.586	7638.569	213.410
159.400	558.900	3030.598	7632.366	215.754
159.763	559.900	3027.427	7699.347	216.238
160.131	560.900	3044.060	7696.914	214.773
160.495	562.200	3026.981	7608.600	213.856
160.860	563.200	3017.327	7635.907	220.046
161.225	564.200	2975.717	7691.833	220.109
161.586	565.500	3007.392	7688.381	214.302
161.952	566.500	3010.003	7664.437	218.632
162.322	567.500	2918.568	7679.529	215.219
162.688	568.800	2935.571	7745.784	216.263
163.056	569.800	2993.637	7685.121	215.435
163.424	570.800	2927.420	7630.010	217.511
163.784	572.100	2885.301	7745.695	215.257
164.151	573.100	2907.602	7746.141	215.473
164.516	574.100	2927.445	7714.262	213.359
164.882	575.400	2884.485	7667.697	213.359
165.244	576.400	2858.911	7788.451	221.485
165.611	577.400	2917.218	7794.348	215.588
165.979	578.700	2909.080	7701.296	222.275
166.346	579.700	2868.654	7750.586	213.015
166.715	580.700	2834.941	7809.747	216.059
167.082	582.000	2927.891	7835.474	212.862
167.451	583.000	2917.129	7766.137	217.231
167.816	584.000	2859.395	7769.894	214.773
168.186	585.300	2855.166	7875.263	214.900
168.570	586.300	2933.228	7859.967	215.932
168.937	587.300	2921.230	7801.965	212.289
169.299	588.600	2868.743	7796.985	215.690
169.663	589.600	2915.002	7843.880	216.632
170.031	590.600	2934.374	7779.727	220.084
170.400	591.900	2902.074	7777.804	212.073
170.771	592.900	2839.768	7866.233	213.958
171.138	593.900	2923.166	7851.204	213.703
171.506	595.200	2912.735	7762.558	213.652
171.866	596.200	2910.353	7808.346	215.091
172.234	597.200	2876.461	7864.755	220.351
172.598	598.500	2941.430	7903.971	217.562
172.966	599.500	2980.314	7836.111	212.340
173.331	600.500	2922.466	7819.312	218.708
173.696	601.800	2918.288	7884.726	214.684
174.065	602.800	2982.480	7881.478	219.358
174.427	603.800	2951.148	7848.618	218.365
174.791	605.100	2916.276	7931.456	215.295
175.161	606.100	2965.145	7891.718	215.906
175.528	607.100	2975.908	7767.640	212.697
175.894	608.400	2944.589	7817.414	215.779
176.262	609.400	2936.794	7903.627	219.091
176.625	610.400	3004.616	7921.700	221.880
176.988	611.700	3011.111	7864.743	216.034
177.357	612.700	2923.650	7898.469	215.868
177.722	613.700	2948.321	7945.224	212.531
178.089	615.000	3030.394	7937.875	217.155
178.451	616.000	3018.931	7846.198	220.071
178.814	617.000	2951.466	7884.331	215.970
179.183	618.300	3000.897	7933.902	221.982
179.551	619.300	2999.674	7893.654	213.767
179.920	620.300	2952.625	7876.346	212.824
180.288	621.600	2966.432	7880.676	213.066
180.655	622.600	3008.195	7945.008	221.829
181.016	623.500	3021.466	7854.579	215.333
181.383	624.900	2919.129	7866.322	212.659
181.749	625.800	2954.651	8005.468	214.671
182.116	626.800	3006.348	8013.428	215.473
182.482	628.200	2969.068	7891.502	219.103
182.863	629.200	2939.099	7897.399	217.040
183.231	630.200	2957.160	8032.087	223.294
183.599	631.500	2994.923	8051.344	213.257
183.966	632.500	2965.298	7961.005	216.709
184.332	633.500	2931.407	7972.009	214.009
184.696	634.800	2907.717	8029.030	221.893
185.057	635.800	2973.360	8037.729	216.543
185.427	636.700	2916.199	7992.375	218.390
185.790	638.100	2906.787	8074.639	215.129
186.156	639.000	2960.318	8090.904	216.620
186.521	640.000	2935.941	8035.004	217.486
186.880	641.300	2944.245	8002.220	214.021
187.248	642.300	2930.120	8142.486	227.293
187.609	643.300	2972.940	8149.542	214.544
187.975	644.600	2971.144	8104.048	215.321
188.343	645.600	2940.997	8130.973	215.868
188.711	646.600	2911.780	8206.398	219.307
189.077	647.900	2975.755	8220.013	218.390
189.443	648.900	2978.722	8118.173	218.441
189.812	649.900	2904.023	8172.060	219.218
190.190	651.200	2948.461	8278.652	216.925
190.558	652.200	2959.592	8231.769	223.994
190.917	653.200	2927.445	8160.942	219.256
191.283	654.500	2930.731	8237.551	218.415
191.650	655.500	2950.473	8234.660	219.065
192.014	656.500	2990.287	8150.205	217.384
192.383	657.800	2933.381	8163.603	228.299
192.749	658.800	2928.859	8263.636	222.033
193.117	659.800	2944.398	8264.871	221.116
193.483	661.100	2971.233	8195.012	224.924
193.842	662.100	2928.757	8164.801	218.836
194.202	663.100	2916.874	8264.922	219.129
194.568	664.100	2958.904	8232.151	223.879
194.934	665.400	2944.678	8169.411	221.689
195.304	666.400	2928.719	8213.658	215.180
195.671	667.400	2914.505	8246.620	218.899
196.037	668.700	2947.938	8182.364	216.212
196.403	669.700	2919.129	8167.042	229.318
196.763	670.700	2874.793	8221.312	214.200
197.126	672.000	2906.800	8240.723	215.410
197.492	673.000	2944.079	8136.284	215.906
197.854	674.000	2850.848	8111.346	215.830
198.219	675.300	2853.294	8187.077	219.575
198.586	676.300	2909.474	8198.858	226.287
198.947	677.300	2901.119	8108.238	223.561
199.307	678.600	2869.558	8168.036	215.040
199.675	679.600	2851.231	8214.154	219.358
200.035	680.600	2884.829	8158.305	224.911
200.401	681.600	2861.929	8098.023	217.588
200.766	682.900	2866.667	8200.794	228.847
201.132	683.900	2879.607	8176.213	216.301
201.498	684.900	2875.455	8084.574	226.350
201.865	686.200	2804.042	8065.711	217.167
202.232	687.200	2755.452	8183.765	216.722
202.600	688.200	2855.472	8164.087	221.523
202.962	689.500	2820.905	8042.582	216.734
203.322	690.500	2784.275	8052.185	214.365
203.690	691.500	2799.151	8142.321	220.542
204.058	692.800	2840.863	8080.205	222.287
204.427	693.800	2802.730	8018.790	216.327
204.798	694.800	2739.978	8026.305	216.034
205.166	696.100	2764.967	8083.950	218.466
205.549	697.100	2785.625	8027.425	226.096
205.928	698.400	2731.610	8007.518	211.156
206.296	699.400	2651.982	8054.287	213.907
206.662	700.400	2725.738	8110.773	219.154
207.024	701.700	2734.093	7962.686	213.385
207.384	702.700	2663.266	7984.695	219.511
207.750	703.700	2683.351	8008.983	216.110
208.116	705.000	2709.194	8034.609	221.918
208.482	706.000	2671.608	7950.039	213.754
208.851	707.000	2615.886	7914.899	212.391
209.219	708.300	2639.933	8017.593	216.772
209.585	709.300	2654.363	7997.380	217.715
209.945	710.300	2621.592	7913.154	210.646
210.311	711.600	2589.013	7956.038	211.538
210.680	712.600	2610.524	8017.364	220.020
211.043	713.500	2602.437	7951.198	215.945
211.409	714.900	2547.912	7917.370	216.403
211.795	715.900	2549.797	7968.456	221.956
212.160	716.800	2570.175	8007.595	219.957
212.524	718.200	2595.139	7893.514	215.129
212.911	719.100	2514.415	7887.770	215.231
213.276	720.500	2538.793	7990.630	216.530
213.644	721.400	2554.357	8032.278	218.963
214.004	722.400	2555.121	7939.646	215.499
214.370	723.400	2510.683	7923.903	216.212
214.737	724.700	2512.339	8020.726	219.906
215.098	725.700	2559.477	8013.199	215.932
215.464	726.700	2532.437	7931.354	215.270
215.831	728.000	2515.485	7918.580	214.060
216.199	729.000	2512.365	8025.489	224.198
216.561	730.000	2535.761	7954.076	217.830
216.928	731.300	2504.392	7943.696	213.295
217.296	732.300	2506.862	8020.726	225.408
217.663	733.300	2530.005	8052.745	217.078
218.026	734.600	2533.622	7963.743	217.893
218.392	735.600	2499.361	7940.423	219.791
218.758	736.600	2504.583	8050.733	225.573
219.119	737.900	2519.841	8046.734	220.390
219.484	738.900	2522.949	8021.528	218.365
219.851	739.900	2506.187	8004.309	226.045
220.213	741.200	2495.272	8102.379	221.383
220.574	742.200	2540.474	8094.546	221.893
220.940	743.200	2526.642	8026.954	223.052
221.307	744.500	2511.460	8070.156	229.522
221.675	745.500	2518.109	8125.713	220.415
222.044	746.500	2517.829	8029.247	220.657
222.412	747.800	2512.365	8006.219	220.453
222.779	748.800	2516.236	8096.610	223.943
223.141	749.800	2529.304	8139.099	225.701
223.507	751.100	2524.324	8009.875	224.198
223.871	752.100	2510.390	8062.565	233.432
224.234	753.100	2486.013	8126.400	220.644
224.597	754.100	2546.855	8108.073	225.854
224.963	755.400	2549.428	8053.178	227.369
225.329	756.400	2497.743	8102.965	232.311
225.690	757.300	2526.731	8142.435	226.885
226.058	758.700	2522.579	8116.453	225.000
226.423	759.700	2543.161	8086.433	227.242
226.785	760.700	2507.219	8198.374	225.790
227.146	762.000	2534.106	8173.882	226.872
227.517	763.000	2550.383	8092.674	227.000
227.884	764.000	2494.304	8111.409	234.807
228.243	765.300	2500.316	8191.624	230.413
228.608	766.300	2514.135	8240.850	230.528
228.974	767.300	2554.318	8180.467	231.318
229.334	768.200	2511.995	8161.578	228.235
229.694	769.500	2485.656	8239.818	232.591
230.060	770.500	2533.112	8208.143	228.872
230.428	771.500	2504.952	8146.307	240.819
230.791	772.800	2509.512	8235.628	234.298
231.162	773.800	2511.091	8214.829	232.744
231.527	774.800	2539.672	8158.241	231.190
231.894	776.200	2506.442	8161.285	235.240
232.257	777.200	2473.493	8268.106	233.062
232.624	778.200	2526.298	8276.601	234.884
232.992	779.500	2532.896	8205.137	237.839
233.353	780.500	2502.239	8214.893	233.292
233.716	781.500	2491.158	8286.663	237.826
234.083	782.800	2544.257	8323.000	237.278
234.447	783.700	2543.505	8204.717	246.843
234.805	784.700	2519.752	8309.168	238.170
235.172	786.000	2514.008	8384.606	238.437
235.540	787.000	2554.268	8289.592	236.527
235.905	788.000	2518.605	8276.678	239.596
236.270	789.300	2492.827	8392.961	241.061
236.635	790.300	2535.685	8403.342	242.245
237.002	791.300	2547.301	8321.102	250.715
237.361	792.300	2512.390	8329.012	240.997
237.726	793.600	2497.972	8484.078	245.417
238.097	794.600	2559.770	8490.625	248.244
238.464	795.900	2559.426	8376.914	246.754
238.827	796.900	2510.964	8415.237	242.538
239.195	797.900	2521.599	8517.511	245.646
239.560	798.900	2548.447	8478.487	253.288
239.918	800.200	2505.118	8426.420	247.658
240.283	801.200	2476.664	8514.544	249.913
240.648	802.200	2530.438	8536.922	246.105
241.015	803.500	2540.066	8453.243	255.708
241.375	804.500	2497.208	8475.952	246.117
241.743	805.500	2518.516	8575.908	248.945
