Thu, Oct 12, 2017	11:29 AM
 Notes: GUA_4.8E-10_30sec_0.0025 L_101217
 waiting time: 50.000
 time(s)	 temp (K)	 MS1=1.933	 MS2=27.907	 MS3=78.871	 MS4=125.586	 MS5=17.701	 MS6=78.871	 MS7=109.505	 MS8=125.586
0.000	97.800	2964.990	7760.953	2.957	10.533
0.948	97.800	2984.648	7887.541	3.651	10.193
1.875	97.800	2979.490	7860.094	2.899	10.586
2.754	97.800	2974.321	7789.024	3.090	10.491
3.659	97.800	2944.427	7782.045	2.927	10.363
4.542	97.800	2959.605	7830.736	3.117	10.411
5.429	97.800	2969.076	7926.744	2.948	10.888
6.291	97.800	2978.718	7904.251	2.979	10.155
7.171	97.800	2913.857	7800.844	2.866	10.385
8.050	97.800	2906.801	7828.227	2.520	10.301
8.935	97.900	2955.870	8253.434	3.137	10.612
9.800	98.100	2984.527	9143.622	2.978	10.458
10.690	98.600	2986.040	11720.563	2.982	10.939
11.576	99.600	2985.067	11641.991	3.195	10.656
12.441	101.200	3048.753	11362.248	3.123	10.786
13.361	103.400	3103.509	12093.231	3.074	10.408
14.279	106.300	3112.206	12521.112	3.237	10.111
15.181	110.100	3139.797	11718.499	3.217	10.658
16.064	113.800	3113.117	11298.451	3.529	10.837
16.928	117.100	3118.680	10756.452	3.026	11.297
17.863	121.300	3106.283	10491.763	2.942	10.747
18.727	125.000	3112.406	10167.416	3.106	10.473
19.592	128.500	3071.950	10020.119	2.933	10.995
20.456	131.900	3082.370	10060.468	3.184	11.096
21.319	135.300	3117.620	10116.878	3.029	10.439
22.198	138.200	3066.281	9867.307	3.196	10.975
23.059	141.500	3033.943	9611.852	3.173	11.581
23.952	144.800	3098.889	9818.909	3.259	11.547
24.813	148.000	3118.381	9543.267	3.025	11.647
25.690	151.100	3020.530	9304.305	3.401	11.673
26.600	154.200	3015.231	9168.726	2.997	11.340
27.464	157.200	3059.071	9202.401	3.068	10.828
28.338	160.200	3066.603	9134.516	3.434	11.316
29.222	163.200	3027.451	8955.237	3.721	11.545
30.086	166.100	3013.436	8956.880	3.413	11.037
30.980	168.900	3018.160	9017.570	3.360	11.331
31.843	171.800	3038.741	8940.017	3.275	11.433
32.708	174.500	3021.675	8804.795	3.239	11.715
33.581	177.300	2980.589	8764.586	2.934	11.525
34.447	180.100	3046.161	8891.084	3.452	12.693
35.312	182.800	3056.799	8807.405	3.171	11.808
36.213	185.600	3055.771	8619.594	3.118	13.112
37.098	188.300	3030.410	8651.575	3.416	12.550
37.963	191.000	3081.908	8715.754	3.433	13.033
38.853	193.700	3147.082	8684.282	3.256	13.042
39.715	196.400	3217.344	8650.569	3.872	13.939
40.581	199.100	3219.275	8616.766	3.808	14.178
41.502	201.700	3253.709	8561.006	3.483	15.985
42.368	204.400	3335.462	8603.520	3.505	17.952
43.233	207.100	3390.002	8512.162	3.807	22.171
44.097	209.400	3371.352	8484.053	3.669	25.859
44.986	212.400	3410.879	8502.011	3.906	31.959
45.850	214.700	3444.807	8500.954	4.518	39.166
46.714	217.400	3495.858	8464.247	4.235	46.829
47.578	220.000	3476.217	8410.321	4.951	55.228
48.443	222.700	3540.754	8566.063	5.544	60.689
49.308	225.300	3572.790	8495.057	4.568	64.086
50.211	228.000	3592.188	8443.780	5.442	63.361
51.106	230.600	3545.902	8401.609	5.286	58.773
52.010	233.300	3572.711	8444.748	4.953	52.036
52.892	235.900	3629.265	8446.136	5.254	45.757
53.756	238.500	3649.620	8479.735	4.613	39.762
54.644	241.200	3571.346	8401.609	4.248	38.605
55.511	243.800	3558.053	8351.848	4.156	34.080
56.376	246.500	3585.537	8439.870	4.119	29.995
57.241	249.100	3595.192	8432.763	4.332	28.554
58.105	251.800	3515.353	8358.930	3.987	27.803
58.994	254.400	3520.842	8458.822	3.783	28.105
59.860	257.000	3539.202	8527.114	3.593	27.223
60.742	259.700	3568.934	8473.914	4.070	25.087
61.609	262.300	3531.928	8456.453	4.042	24.282
62.474	265.000	3527.087	8513.869	4.391	24.246
63.341	267.300	3586.626	8479.034	3.383	24.339
64.207	269.900	3608.050	8401.113	3.883	23.842
65.093	272.500	3557.035	8439.551	3.998	23.714
65.960	275.200	3642.378	8492.484	3.849	25.301
66.900	278.100	3662.283	8502.189	4.179	25.505
67.768	280.800	3735.674	8543.443	4.103	23.948
68.634	283.400	3676.094	8398.769	3.536	25.204
69.531	286.100	3738.993	8423.083	3.893	25.706
70.407	288.700	3866.331	8488.982	4.033	25.245
71.272	291.400	3963.319	8529.662	4.063	27.086
72.139	293.700	3953.543	8470.450	4.202	27.504
73.003	296.300	4055.131	8427.248	4.230	27.784
73.869	298.900	4260.687	8523.663	4.445	27.842
74.780	301.600	4400.541	8584.454	3.942	29.938
75.648	304.200	4513.685	8546.614	4.525	31.883
76.516	306.900	4699.255	8490.013	3.914	30.459
77.383	309.500	4963.329	8596.566	4.476	31.303
78.251	312.100	5192.898	8551.034	4.578	32.831
79.117	314.800	5337.270	8479.799	4.480	32.699
79.983	317.400	5555.512	8558.905	4.631	34.474
80.857	320.100	5877.144	8657.115	4.636	33.448
81.740	322.700	6002.422	8573.106	3.997	32.831
82.601	325.300	6016.751	8556.332	4.998	32.545
83.464	327.600	6098.001	8595.140	3.669	32.345
84.352	330.300	6223.827	8679.965	4.384	30.431
85.218	332.900	6088.477	8612.270	4.674	28.878
86.104	335.500	5872.843	8590.746	4.284	26.880
86.989	338.200	5680.536	8569.552	4.615	24.822
87.854	340.800	5547.249	8681.748	4.548	23.439
88.743	343.500	5337.579	8715.958	5.806	22.365
89.640	346.400	4984.590	8719.269	5.727	20.313
90.501	348.700	4808.675	8763.006	5.831	20.598
91.378	351.400	4753.280	8776.558	6.144	19.634
92.270	354.000	4679.076	8901.426	5.831	19.899
93.136	356.600	4535.330	8813.124	6.011	18.987
94.002	359.300	4500.928	8816.015	6.673	19.783
94.868	361.900	4618.700	8929.994	7.019	19.948
95.752	364.600	4740.513	8946.628	7.409	19.087
96.621	367.200	4795.607	8827.809	7.440	19.115
97.489	369.900	5039.963	8825.886	7.649	18.987
98.357	372.500	5420.676	8874.297	7.650	18.250
99.226	375.100	5747.024	8802.247	8.209	19.369
100.091	377.800	5959.800	8839.247	6.746	19.110
100.984	380.400	6166.867	8864.796	6.793	18.684
101.852	383.000	6453.508	9049.895	7.034	18.568
102.718	385.300	6555.546	8945.545	7.035	17.869
103.585	388.000	6579.483	9185.678	7.695	19.121
104.479	390.600	6720.759	9509.579	7.455	19.434
105.346	393.300	6841.425	9720.278	6.647	18.455
106.213	395.900	6774.208	9875.255	7.207	19.503
107.084	398.500	6632.899	10223.750	7.479	18.829
107.950	401.200	6551.814	10768.462	6.616	19.251
108.814	403.800	6424.207	11268.278	6.097	18.199
109.696	406.500	6116.516	11583.849	6.626	17.816
110.592	409.100	5760.636	11967.293	6.776	18.757
111.458	411.700	5464.841	12495.283	5.830	19.176
112.326	414.400	5251.552	12789.762	5.604	18.959
113.194	417.000	4949.649	12804.524	5.629	19.932
114.093	419.600	4675.413	12958.673	4.678	18.848
114.961	422.300	4539.598	13283.338	4.978	19.497
115.844	424.900	4433.099	13371.652	5.099	19.585
116.711	427.500	4315.220	13315.523	5.126	18.741
117.579	430.200	4205.910	13418.471	5.076	19.634
118.476	432.800	4157.158	13612.562	4.910	18.948
119.341	435.400	4172.174	13731.661	4.896	20.116
120.209	437.800	4108.724	13617.389	4.933	19.308
121.075	440.400	4042.965	13715.562	4.804	20.070
121.956	443.000	4048.553	14032.878	4.930	19.169
122.825	445.700	4075.107	14128.439	4.792	19.009
123.691	448.300	3998.121	13921.956	4.868	20.193
124.557	451.000	3963.039	13964.139	4.950	19.048
125.425	453.600	4008.463	14152.689	4.718	20.288
126.294	456.200	4018.167	14224.179	5.042	19.864
127.161	458.900	3946.032	14059.853	4.731	19.922
128.028	461.500	3930.650	14149.913	5.084	19.560
128.894	463.800	4010.157	14354.040	5.238	19.872
129.761	466.400	4024.199	14352.371	4.411	19.727
130.627	469.100	3985.744	14296.420	4.812	19.800
131.516	471.700	3950.292	14304.113	4.331	19.552
132.379	474.400	4103.877	14430.369	5.154	19.870
133.455	477.700	4054.950	14348.640	4.265	19.670
134.306	480.300	4121.571	14219.467	4.377	19.763
135.158	482.600	4048.355	13863.203	5.039	19.417
136.040	485.300	4094.719	13787.752	4.590	19.908
136.890	487.900	4176.811	13712.696	4.366	19.641
137.742	490.500	4262.539	13505.640	5.073	20.486
138.608	493.200	4129.438	13099.347	4.846	20.122
139.519	495.800	4206.919	12678.038	4.988	20.846
140.385	498.400	4321.432	12585.164	5.492	20.851
141.245	501.100	4369.366	12199.211	4.856	21.513
142.106	503.700	4296.652	11631.255	4.623	20.036
142.962	506.000	4266.151	11346.009	4.546	20.216
143.824	508.700	4354.993	11040.538	4.910	20.181
144.691	511.300	4335.804	10638.041	4.769	19.918
145.557	513.900	4292.299	10301.340	5.160	20.876
146.430	516.600	4377.249	10219.648	4.941	20.312
147.326	519.200	4411.675	10058.787	4.648	21.002
148.192	521.900	4365.266	9744.197	5.183	20.902
149.054	524.500	4351.653	9707.860	5.459	21.288
149.918	527.200	4417.872	9661.907	5.505	20.796
150.783	529.500	4397.403	9584.189	5.846	20.846
151.648	532.100	4346.033	9504.382	5.682	22.378
152.516	534.700	4324.111	9495.250	5.222	21.407
153.384	537.400	4361.226	9505.299	5.538	21.412
154.285	540.000	4346.272	9455.525	4.931	22.704
155.152	542.700	4214.222	9255.143	5.559	21.966
156.009	545.300	4095.465	9402.198	4.759	21.950
156.862	547.900	4190.502	9408.005	5.545	22.340
157.722	550.600	4161.857	9272.375	5.276	22.439
158.610	553.200	4021.472	9200.007	5.368	22.508
159.475	555.500	3959.757	9194.772	5.546	22.703
160.341	558.100	4012.803	9293.530	4.898	21.699
161.208	560.800	3956.683	9216.093	5.382	22.724
162.073	563.400	3862.499	9200.478	6.066	21.919
162.938	566.100	3869.268	9282.551	5.701	22.565
163.806	568.700	3883.548	9303.910	5.983	22.392
164.672	571.300	3786.838	9211.444	5.674	23.034
165.537	574.000	3783.171	9144.195	5.575	23.095
166.402	576.300	3843.380	9220.818	5.156	23.488
167.270	578.900	3808.755	9236.089	5.031	23.665
168.138	581.500	3778.373	9211.699	5.253	22.601
169.001	584.200	3784.317	9199.803	5.813	22.612
169.869	586.800	3819.289	9281.341	5.399	23.634
170.735	589.500	3801.230	9225.683	6.213	23.994
171.602	592.100	3804.462	9200.567	5.582	23.766
172.469	594.700	3808.160	9325.753	5.359	22.616
173.335	597.000	3885.927	9397.027	5.803	24.404
174.202	599.700	3869.892	9323.627	5.429	24.035
175.067	602.300	3823.751	9260.798	6.537	24.733
175.935	605.000	3871.093	9282.169	6.087	24.891
176.801	607.600	3894.815	9349.673	5.352	25.513
177.684	610.200	3889.859	9206.795	5.894	24.478
178.549	612.900	3886.695	9235.414	6.049	23.608
179.414	615.500	3935.546	9342.349	6.330	25.465
180.290	618.100	3938.952	9335.930	6.188	24.799
181.155	620.800	3886.819	9278.616	6.276	24.761
182.019	623.100	3923.939	9310.992	6.105	25.631
182.885	625.700	3953.262	9419.634	5.718	25.850
183.750	628.400	3959.967	9386.570	6.444	24.790
184.616	631.000	3914.989	9279.125	6.172	25.096
185.480	633.600	3912.170	9388.697	6.046	25.012
186.344	636.300	3983.187	9424.143	6.814	26.703
187.209	638.900	3984.197	9339.025	6.164	26.572
188.073	641.200	3950.301	9367.631	5.805	26.665
188.941	643.900	3993.862	9556.971	5.874	26.420
189.807	646.500	4054.318	9545.241	5.896	27.291
190.673	649.100	3964.158	9409.508	5.849	25.833
191.571	651.800	4000.559	9456.990	5.838	27.294
192.438	654.400	4061.107	9595.359	5.708	27.923
193.304	657.000	4066.461	9530.224	6.468	26.942
194.171	659.700	3987.511	9392.671	5.774	26.750
195.037	662.300	3964.870	9421.022	6.888	27.098
195.915	665.000	4068.368	9559.429	6.544	27.602
196.783	667.600	4051.254	9614.132	5.920	27.178
197.648	670.200	3994.432	9541.038	6.493	28.872
198.515	672.500	3979.645	9556.907	6.483	26.815
199.381	675.100	4065.942	9667.676	6.239	28.624
200.265	677.800	4087.538	9682.871	6.526	27.438
201.131	680.500	3962.194	9548.552	7.088	27.564
201.996	683.100	3960.783	9595.155	6.378	28.950
202.862	685.800	3968.133	9678.056	6.167	29.562
203.722	688.400	3982.182	9591.805	6.348	28.759
204.586	691.000	3885.088	9591.232	7.481	28.978
205.452	693.300	3859.960	9690.283	6.259	29.011
206.319	696.000	3837.593	9734.466	6.886	29.301
207.185	698.600	3733.736	9647.413	6.897	29.988
208.051	701.300	3674.726	9619.099	6.845	30.723
208.919	703.900	3665.578	9723.513	6.708	30.674
209.784	706.500	3635.107	9730.632	6.919	30.146
210.650	709.200	3520.263	9604.554	7.040	30.049
211.516	711.800	3459.539	9623.048	6.678	30.287
212.382	714.400	3477.501	9775.159	6.949	31.390
213.250	716.700	3425.395	9728.760	7.337	30.360
214.113	719.400	3328.675	9688.246	7.280	30.808
214.978	722.000	3293.712	9773.427	6.670	31.887
215.843	724.600	3329.523	9821.303	6.544	32.890
216.710	727.300	3282.907	9741.853	7.894	31.105
217.590	729.900	3206.568	9734.097	6.707	32.502
218.457	732.500	3230.776	9864.671	7.121	31.810
219.322	735.200	3251.324	9927.118	7.651	32.362
220.196	737.800	3218.069	9800.250	7.193	32.636
221.063	740.100	3186.937	9894.793	7.214	31.833
221.932	742.700	3214.463	10003.638	7.882	34.083
222.798	745.300	3223.092	10078.427	7.353	32.929
223.662	748.000	3146.365	9996.098	7.759	33.541
224.525	750.600	3184.358	10038.129	7.218	33.555
225.389	753.300	3221.925	10072.988	7.277	34.374
226.288	755.900	3229.209	10099.213	7.209	34.905
227.156	758.500	3194.952	10104.345	8.049	35.180
228.058	761.200	3163.237	10098.881	7.867	34.530
228.962	763.800	3186.535	10132.276	7.129	33.439
229.827	766.400	3238.167	10241.530	8.361	34.406
230.694	769.100	3195.664	10072.135	7.589	34.812
231.560	771.700	3201.802	10191.068	7.874	36.040
232.425	774.400	3229.627	10305.327	7.091	36.632
233.289	777.000	3247.248	10307.517	7.177	36.355
234.156	779.300	3179.062	10232.003	8.310	34.496
235.041	782.300	3181.599	10290.017	7.423	35.917
235.907	784.600	3252.600	10465.831	7.706	36.588
236.774	787.200	3241.350	10514.625	8.283	38.244
237.641	789.900	3176.287	10415.127	8.406	35.899
238.507	792.500	3170.171	10456.113	8.808	36.975
239.373	795.100	3277.827	10679.714	8.334	36.815
240.239	797.800	3272.758	10672.340	8.296	38.591
