Wed, Oct 25, 2017	2:43 PM
 Notes: GUA top chamber_3E-09 above base_ 30 sec_102517
 waiting time: 50.000
 time(s)	 temp (K)	 MS1=1.971	 MS2=27.883	 MS3=125.586	 MS4=17.664	 MS5=32.000	 MS6=84.866	 MS7=56.522	 MS8=125.586
0.000	99.600	8419.644	10145.344	12.217	2966.330	322.345
1.080	99.700	8429.884	10144.720	12.310	2957.147	319.632
2.198	99.700	8302.189	10133.932	11.962	2956.179	316.168
3.275	99.700	8337.431	10101.187	12.274	2961.541	315.786
4.368	99.700	8391.650	10168.983	12.415	2954.459	312.984
5.447	99.700	8220.625	10131.741	12.369	2943.481	318.702
6.562	99.700	8194.107	10102.295	12.181	2960.522	316.397
7.639	99.700	8224.509	10274.250	11.773	2951.250	317.709
8.718	99.700	8216.014	11566.541	12.312	2984.199	337.883
9.795	100.000	8395.954	18318.846	12.353	2994.376	376.004
10.908	100.700	8526.478	21020.386	12.061	2973.182	372.883
11.984	102.000	8562.878	20010.934	12.187	2992.898	383.811
13.103	104.400	8573.182	21614.427	12.010	2997.190	397.554
14.216	107.700	8543.544	20783.336	12.084	2968.533	391.134
15.330	112.400	8618.129	19614.257	12.169	2991.433	392.204
16.416	116.600	8474.271	18690.355	12.525	2983.244	384.779
17.518	121.500	8498.623	18165.919	12.566	2971.386	387.212
18.594	126.200	8518.097	17837.841	12.227	2972.010	388.765
19.674	130.700	8478.385	17424.581	12.802	2973.220	382.805
20.750	134.900	8491.338	17332.191	12.913	2958.484	389.097
21.829	139.100	8485.046	17214.646	12.576	2984.709	386.142
22.908	142.900	8472.793	16944.570	12.546	3003.266	386.218
24.017	147.300	8379.779	16548.657	12.870	3120.326	379.149
25.093	150.900	8413.314	16189.642	12.662	3378.749	372.043
26.209	154.900	8444.570	15898.576	12.622	3664.517	373.915
27.303	158.700	8391.815	15669.435	12.538	3694.282	371.087
28.382	162.400	8394.426	15371.580	12.897	3521.664	367.534
29.489	166.100	8328.069	15153.048	12.585	3305.056	363.586
30.566	169.700	8368.775	15018.450	13.084	3169.680	366.120
31.642	173.200	8353.886	14854.901	13.085	3129.509	361.548
32.751	176.700	8353.861	14707.706	13.112	3080.041	359.433
33.829	180.200	8357.745	14495.567	12.985	3052.683	356.326
34.923	183.600	8369.450	14290.727	12.992	3042.226	349.423
36.005	187.100	8361.553	14116.951	13.053	3024.408	358.274
37.083	190.100	8383.702	13850.644	12.694	3014.716	358.873
38.189	193.500	8295.095	13632.304	13.498	2997.305	355.867
39.267	196.900	8323.841	13531.329	13.084	2981.142	351.613
40.363	200.200	8330.629	13351.452	13.117	2969.807	355.855
41.440	203.600	8272.729	13100.251	12.996	2961.643	349.512
42.518	206.900	8355.962	13103.550	13.926	2960.089	346.964
43.594	210.300	8375.296	12965.257	13.439	2950.358	349.550
44.673	213.200	8332.718	12837.676	13.115	2941.163	349.321
45.752	216.600	8382.123	12781.190	13.537	2937.737	344.787
46.832	219.900	8479.455	12756.876	13.475	2924.401	339.705
47.912	223.200	8501.094	12741.338	13.506	2919.676	343.513
48.989	226.500	8596.070	12674.752	13.122	2923.128	343.551
50.069	229.500	8708.774	12644.184	13.497	2916.632	347.639
51.146	232.800	8756.600	12540.955	13.851	2892.955	344.888
52.264	236.100	8833.655	12511.254	13.628	2891.389	342.596
53.363	239.400	8897.898	12480.139	14.108	2874.869	339.883
54.440	242.700	8999.764	12536.561	13.927	2864.273	338.406
55.537	246.000	9036.330	12476.089	14.872	2852.619	341.475
56.614	249.300	9096.446	12399.364	13.984	2825.847	343.551
57.692	252.600	9141.444	12422.188	14.234	2848.492	346.468
58.799	255.900	9212.437	12409.936	14.393	2843.996	340.150
59.877	259.200	9346.998	12392.831	14.475	2822.115	344.748
60.953	262.200	9395.957	12329.059	14.407	2823.172	338.406
62.030	265.400	9548.387	12298.619	13.997	2812.079	340.864
63.108	268.700	9627.633	12392.589	14.943	2795.165	342.239
64.187	272.000	9710.611	12358.493	14.917	2792.082	341.666
65.302	275.400	9878.643	12498.199	14.987	2770.061	335.413
66.378	278.700	9933.104	12495.257	15.071	2785.421	337.068
67.493	282.000	10065.092	12481.540	15.169	2761.859	342.137
68.570	285.300	10045.197	12447.521	14.789	2762.368	342.698
69.690	288.600	10124.100	12487.399	14.701	2743.073	342.940
70.768	291.900	10119.120	12501.969	15.533	2752.052	343.475
71.845	294.800	10140.899	12538.434	15.915	2739.901	342.265
72.924	298.200	10302.308	12571.650	15.982	2723.217	348.467
74.004	301.500	10164.360	12509.598	15.927	2727.942	341.067
75.083	304.800	10234.525	12557.959	14.884	2700.622	349.333
76.163	308.000	10171.263	12581.101	15.570	2702.087	348.913
77.241	311.000	10163.850	12647.687	15.764	2669.430	349.053
78.321	314.300	10074.746	12629.092	15.909	2663.763	345.092
79.397	317.600	10068.250	12666.091	15.989	2663.177	345.665
80.475	320.900	10033.976	12693.041	15.588	2648.364	345.742
81.552	324.200	9942.618	12737.976	15.951	2634.851	340.100
82.660	327.500	9883.304	12763.461	15.900	2614.651	344.570
83.739	330.800	9685.011	12784.209	15.787	2626.305	345.996
84.817	333.700	9559.671	12766.314	16.529	2606.092	351.104
85.924	337.000	9411.877	12708.325	16.927	2602.755	347.219
87.022	340.300	9311.272	12698.110	16.949	2580.326	346.506
88.133	343.600	9218.271	12673.746	16.488	2558.114	350.696
89.252	347.300	9149.035	12720.845	16.668	2571.258	345.996
90.353	350.600	9110.431	12763.881	16.799	2545.097	345.614
91.431	353.500	9094.319	12860.373	16.795	2559.349	345.258
92.510	356.800	9066.567	12831.499	17.143	2524.502	340.800
93.624	360.100	8970.598	12748.827	16.682	2523.547	346.137
94.702	363.400	8990.466	12765.792	17.141	2513.536	345.054
95.782	366.700	9011.112	12825.768	16.992	2517.778	347.945
96.861	370.000	9021.849	12855.520	17.589	2497.119	342.609
97.938	373.300	9028.103	12910.656	17.621	2495.183	342.596
99.015	376.300	9146.794	13028.583	17.696	2479.275	337.641
100.102	379.600	9233.338	13111.981	17.646	2482.752	342.494
101.181	382.900	9358.792	13395.762	17.546	2472.156	342.761
102.280	386.200	9461.333	13641.805	17.567	2471.098	342.150
103.396	389.500	9614.922	13939.418	17.916	2455.229	351.027
104.473	392.800	9568.829	14154.409	17.840	2442.989	349.181
105.552	396.100	9612.680	14576.673	17.496	2443.053	350.403
106.644	399.400	9532.504	14947.941	18.731	2434.927	353.422
107.752	402.700	9445.973	15430.830	18.088	2433.067	353.384
108.838	406.000	9235.796	15571.963	17.849	2417.962	347.843
109.918	409.300	9115.793	15705.008	18.314	2414.141	357.230
110.998	412.200	8880.602	15549.330	18.442	2423.490	349.805
112.072	415.500	8769.132	15457.755	18.687	2389.356	353.103
113.152	418.800	8688.753	15389.679	18.617	2389.471	350.416
114.229	422.100	8737.100	15558.131	18.441	2388.312	352.658
115.309	425.100	8722.160	15582.050	19.220	2373.104	352.849
116.389	428.400	8657.281	15527.105	18.468	2377.078	355.409
117.468	431.600	8742.386	15720.903	18.502	2359.718	349.996
118.545	434.900	8630.700	15714.853	18.759	2348.688	348.888
119.625	438.200	8585.345	15672.160	19.330	2335.786	351.983
120.702	441.500	8509.857	15635.301	19.313	2315.306	361.191
121.799	444.900	8488.880	15721.298	19.254	2329.558	356.071
122.878	447.800	8457.395	15729.411	19.788	2330.819	351.613
123.986	451.100	8460.223	15760.539	19.296	2309.371	353.014
125.064	454.400	8443.691	15796.774	19.809	2313.459	353.129
126.144	457.700	8514.977	15923.998	19.411	2317.790	352.772
127.252	461.000	8431.043	15937.257	19.462	2296.240	348.213
128.355	464.300	8451.575	16004.365	19.186	2294.571	349.474
129.466	467.600	8489.529	16078.606	19.205	2295.246	355.269
130.576	470.900	8407.965	16065.118	20.070	2271.824	352.887
131.677	474.200	8410.359	15933.754	20.335	2273.492	353.626
132.755	477.500	8399.572	15882.235	20.341	2276.817	350.110
133.831	480.800	8452.402	15919.808	19.860	2273.098	351.142
134.909	484.100	8421.427	15686.081	20.517	2277.339	352.849
135.989	487.400	8351.848	15265.295	20.660	2251.560	348.162
137.063	490.400	8380.620	14899.236	20.508	2255.776	345.844
138.143	493.700	8369.182	14558.880	20.629	2261.074	346.493
139.223	497.000	8292.101	14055.931	20.558	2266.908	342.239
140.340	500.300	8184.873	13587.739	20.811	2255.763	334.457
141.421	503.600	8225.655	13225.514	21.159	2244.861	339.781
142.497	506.900	8201.800	12824.048	20.103	2229.335	336.826
143.606	510.200	8168.685	12594.105	20.984	2245.931	332.687
144.683	513.500	8162.253	12365.804	20.704	2230.316	331.910
145.763	516.500	8192.095	12348.253	20.574	2222.152	332.088
146.842	519.700	8193.088	12165.485	20.815	2221.579	330.547
147.923	523.000	8218.727	12031.026	21.352	2220.203	333.298
149.002	526.300	8186.618	11862.166	22.140	2220.789	326.128
150.083	529.600	8204.258	11785.162	20.716	2203.404	327.197
151.161	532.600	8173.321	11710.157	21.503	2207.212	328.102
152.241	535.900	8157.948	11676.520	21.135	2197.354	324.294
153.318	539.200	8165.196	11622.466	21.459	2204.066	325.478
154.399	542.500	8130.794	11659.835	21.973	2203.073	324.676
155.478	545.800	8182.110	11594.370	22.134	2199.124	322.141
156.593	549.100	8051.637	11532.815	21.719	2213.517	325.313
157.705	552.400	8091.273	11507.393	22.122	2197.481	328.471
158.785	555.700	7964.902	11433.037	21.787	2209.861	321.530
159.862	559.000	7902.863	11403.068	22.207	2194.934	328.866
160.941	561.900	7886.318	11288.211	21.824	2203.964	317.416
162.043	565.200	7958.992	11360.427	22.883	2200.513	327.923
163.122	568.500	7999.201	11411.946	22.127	2192.731	320.766
164.234	571.800	8005.519	11481.856	22.561	2205.773	327.121
165.312	575.100	7898.507	11317.632	23.052	2210.600	322.689
166.422	578.400	8002.882	11396.968	22.610	2212.842	322.931
167.499	581.700	8019.401	11335.527	22.602	2210.523	321.925
168.578	585.000	7940.092	11274.392	22.030	2195.074	324.599
169.656	588.300	7954.395	11252.562	23.161	2194.093	319.950
170.735	591.300	7877.619	11193.019	22.445	2193.597	322.396
171.817	594.600	7819.885	11180.512	23.036	2212.574	318.409
172.887	597.900	7885.809	11212.251	23.162	2207.696	325.058
173.971	601.200	7964.762	11233.037	23.152	2221.986	322.077
175.047	604.500	7970.519	11243.277	24.074	2211.581	319.568
176.127	607.500	7952.930	11193.426	22.604	2213.593	319.377
177.255	611.100	7943.441	11260.942	22.866	2207.938	321.568
178.349	614.400	7941.225	11222.109	23.793	2209.390	316.741
179.467	617.700	7867.201	11159.904	23.491	2211.173	318.409
180.543	621.000	7865.978	11137.908	24.189	2216.229	317.607
181.619	623.900	7911.575	11124.013	23.809	2221.604	318.817
182.698	627.200	7860.527	11094.783	24.062	2221.732	319.823
183.782	630.500	7793.928	11059.617	23.100	2222.407	322.561
184.857	633.800	7762.762	10966.654	23.431	2225.986	322.167
185.936	637.100	7743.543	10933.284	23.562	2232.914	317.467
187.015	640.100	7722.489	10921.452	22.761	2242.823	317.836
188.093	643.400	7758.495	10973.735	24.186	2238.569	320.294
189.176	646.700	7705.575	10979.849	24.446	2246.096	319.543
190.256	650.000	7730.602	11046.397	24.334	2245.944	318.651
191.334	653.300	7741.518	11004.023	23.393	2248.402	324.714
192.413	656.300	7676.765	10943.690	23.082	2268.793	317.518
193.492	659.500	7685.630	10927.719	24.134	2258.069	320.676
194.569	662.800	7700.532	10936.290	24.772	2278.702	316.715
195.670	666.100	7708.454	10995.820	25.093	2275.874	318.626
196.754	669.500	7692.253	11014.836	24.334	2280.421	314.397
197.835	672.800	7745.402	11020.937	23.858	2274.537	315.569
198.917	676.100	7651.636	10928.585	25.562	2289.439	314.716
199.998	679.000	7687.884	10895.075	24.856	2295.527	320.396
201.079	682.300	7741.670	10868.367	24.235	2293.056	317.683
202.155	685.600	7620.356	10862.865	24.616	2308.925	318.753
203.232	688.900	7498.812	10892.477	24.563	2310.607	320.524
204.310	692.200	7510.415	10875.104	25.656	2324.387	313.175
205.389	695.100	7530.462	10866.698	24.861	2320.643	316.155
206.467	698.400	7544.663	10882.746	25.819	2324.158	313.811
207.546	701.700	7533.939	10871.003	24.920	2326.374	313.149
208.653	705.000	7485.515	10826.668	24.728	2323.509	311.939
209.731	708.300	7474.956	10873.869	26.088	2344.116	310.691
210.808	711.600	7495.831	10947.613	25.762	2345.020	314.283
211.888	714.900	7498.048	10921.032	24.446	2356.738	312.130
213.004	718.200	7519.165	10911.174	25.726	2373.448	312.130
214.082	721.200	7531.010	10941.729	25.606	2354.611	317.658
215.163	724.400	7446.796	10832.310	25.426	2365.475	318.791
216.281	727.800	7380.567	10759.789	25.773	2382.007	308.577
217.361	731.100	7448.426	10881.613	26.060	2394.361	315.378
218.439	734.300	7408.880	10861.222	27.027	2379.230	313.328
219.519	737.600	7360.048	10791.069	26.790	2384.809	316.295
220.601	740.900	7420.355	10816.071	25.263	2388.312	315.111
221.674	743.900	7310.949	10689.547	25.456	2388.388	316.919
222.752	747.200	7338.855	10743.308	25.656	2404.270	314.563
223.832	750.500	7270.167	10623.852	25.838	2418.713	316.906
224.910	753.800	7289.883	10639.595	25.792	2398.730	315.353
225.990	757.100	7317.457	10656.776	26.815	2405.697	316.537
