Fri, Oct 20, 2017	1:03 PM
 Notes: GUA_5 sec dose
 waiting time: 50.000
 time(s)	 temp (K)	 MS1=1.971	 MS2=14.708	 MS3=27.883	 MS4=125.586	 MS5=109.505	 MS6=125.586	 MS7=109.505	 MS8=125.586
0.000	99.900	4141.969	569.668	13632.928	15.927
0.927	99.900	4195.382	561.603	13643.002	16.750
1.784	99.900	4186.389	565.884	13621.070	15.946
2.649	99.800	4178.401	562.593	13556.089	16.930
3.507	99.800	4145.320	558.339	13512.734	16.994
4.375	99.800	4173.761	552.727	13587.751	17.055
5.251	99.800	4215.479	571.483	13585.548	16.115
6.139	99.700	4194.733	562.956	13528.081	16.901
7.012	99.700	4199.359	566.958	13593.508	17.339
7.876	99.700	4196.276	562.207	13561.744	17.607
8.738	99.700	4182.353	559.439	13587.726	18.479
9.601	99.700	4189.806	578.494	13861.267	17.942
10.465	99.700	4201.590	600.745	15547.967	17.729
11.359	100.000	4320.024	678.132	22721.632	19.176
12.223	100.400	4403.800	728.647	26226.155	19.121
13.090	101.400	4414.564	791.438	22072.022	18.610
13.984	102.900	4405.070	873.110	22537.731	18.730
14.838	105.200	4441.258	968.616	23486.507	19.605
15.702	108.100	4449.714	993.918	22615.054	19.573
16.564	111.500	4430.588	1054.965	21414.019	19.186
17.429	115.300	4431.051	1072.591	20240.254	20.776
18.295	119.100	4386.705	1074.630	19565.884	20.164
19.156	122.400	4428.643	1095.824	19273.557	20.234
20.023	126.000	4370.866	1042.867	19072.907	19.987
20.908	129.500	4373.083	1031.580	18954.471	20.298
21.772	132.900	4370.651	1023.810	18921.050	20.316
22.640	136.300	4382.975	1007.687	18842.377	20.390
23.506	139.600	4382.152	970.364	18622.049	21.128
24.372	142.800	4367.891	966.547	18345.694	21.000
25.237	146.100	4347.086	933.899	17968.211	22.052
26.121	149.300	4344.071	922.324	17539.923	22.463
26.988	152.400	4339.528	881.891	17265.032	22.028
27.853	155.500	4288.600	866.280	16874.341	22.333
28.721	158.100	4299.043	836.429	16711.824	21.979
29.586	161.100	4299.048	821.278	16419.064	24.139
30.456	164.000	4258.472	788.166	16170.792	22.687
31.325	166.900	4242.217	775.944	16109.747	22.522
32.190	169.700	4264.391	764.341	15954.477	23.920
33.079	172.600	4225.866	747.170	15810.364	24.467
33.944	175.400	4225.387	726.162	15792.176	24.534
34.803	178.200	4259.799	749.621	15836.524	23.725
35.670	181.000	4240.058	730.410	15624.437	24.786
36.535	183.400	4205.372	696.447	15596.773	24.782
37.402	186.100	4237.408	706.534	15569.836	24.530
38.267	188.800	4224.392	707.936	15531.066	24.967
39.131	191.500	4221.256	700.224	15515.451	24.831
39.998	194.200	4231.745	686.822	15482.286	24.940
40.863	196.900	4227.883	698.134	15453.297	25.359
41.729	199.600	4234.407	684.389	15306.854	25.533
42.594	202.300	4213.449	667.879	15323.870	26.149
43.461	204.600	4233.446	692.469	15403.269	26.406
44.343	207.300	4226.412	672.814	15320.927	27.317
45.207	210.000	4236.927	679.446	15273.841	27.564
46.074	212.600	4215.050	686.398	15325.640	28.546
46.974	215.300	4219.597	676.011	15256.112	28.486
47.873	218.300	4189.196	660.671	15120.481	28.737
48.760	220.900	4166.034	644.818	15147.100	27.732
49.624	223.200	4211.294	662.904	15147.291	28.073
50.488	225.900	4171.549	641.689	15124.188	28.354
51.352	228.500	4175.935	632.333	15029.785	29.944
52.213	231.200	4206.401	650.636	15028.932	29.369
53.099	233.800	4206.560	651.032	15164.715	29.688
53.985	236.500	4190.379	624.444	15094.843	30.120
54.850	239.100	4185.900	622.052	15039.745	30.572
55.738	241.800	4189.057	634.410	15063.422	30.423
56.606	244.400	4200.157	635.746	15106.509	30.840
57.481	247.000	4198.656	640.080	15137.930	30.537
58.346	249.700	4186.822	634.220	15049.208	31.748
59.209	252.300	4200.243	622.960	15009.190	31.637
60.072	254.600	4181.717	619.557	14993.180	31.696
60.940	257.300	4170.312	630.655	15041.311	32.566
61.806	259.900	4208.345	635.910	15022.869	30.408
62.683	262.600	4224.987	633.096	15051.017	33.531
63.550	265.200	4224.675	647.197	15083.558	33.776
64.413	267.800	4240.944	628.088	15045.718	33.574
65.305	270.500	4260.645	627.232	15058.213	32.599
66.197	273.100	4284.038	641.745	15104.331	35.025
67.063	275.700	4281.748	648.387	15157.073	35.133
67.925	278.400	4308.580	645.039	15129.779	33.900
68.789	281.000	4327.885	634.968	15074.171	34.766
69.672	283.700	4361.076	627.832	15095.887	35.523
70.534	286.300	4370.981	635.653	15114.240	35.945
71.394	288.600	4423.478	653.860	15264.390	35.374
72.260	291.300	4470.488	662.177	15218.004	34.407
73.127	293.900	4493.355	657.496	15241.032	37.561
74.034	296.600	4517.110	652.524	15249.017	35.943
74.899	299.200	4506.693	661.646	15289.570	37.426
75.765	301.800	4540.726	648.327	15192.582	37.418
76.631	304.500	4520.274	632.666	15167.466	37.718
77.494	307.100	4576.773	665.901	15214.846	38.694
78.388	309.800	4560.465	645.921	15097.403	37.910
79.255	312.400	4535.125	638.501	15049.616	38.274
80.119	315.000	4539.308	642.031	15089.124	38.798
81.012	317.700	4542.416	631.016	15019.965	38.595
81.876	320.300	4531.138	636.053	15034.765	39.218
82.752	322.900	4524.954	641.418	15037.287	39.629
83.617	325.600	4504.505	626.270	14956.028	39.606
84.481	327.900	4503.234	622.250	15004.490	40.232
85.380	330.800	4516.253	637.174	14927.384	40.269
86.245	333.200	4513.363	640.336	15017.405	40.088
87.109	335.800	4551.428	644.023	15032.931	41.249
87.975	338.400	4505.232	646.219	15000.262	41.623
88.864	341.100	4509.611	629.978	14966.319	39.687
89.729	343.700	4538.362	627.567	14889.098	41.675
90.596	346.300	4564.832	643.058	14946.450	41.309
91.458	349.000	4571.725	646.583	14928.798	41.861
92.322	351.600	4587.010	641.238	14894.256	42.198
93.224	354.300	4576.024	643.692	14874.438	42.724
94.089	356.900	4606.835	646.585	14904.649	42.379
94.949	359.500	4607.832	640.228	14874.044	43.944
95.814	361.900	4622.037	657.313	14927.320	44.090
96.678	364.500	4685.224	671.216	14988.837	42.750
97.545	367.100	4673.181	671.858	14980.342	45.312
98.414	369.800	4672.588	651.679	14976.890	43.313
99.277	372.400	4673.484	647.792	14970.076	45.910
100.142	375.000	4695.395	655.105	14970.255	45.674
101.008	377.700	4691.439	667.902	15093.505	44.532
101.873	380.000	4703.479	671.589	15106.369	43.919
102.740	382.600	4677.192	655.554	15114.903	46.698
103.605	385.300	4715.406	658.414	15216.157	46.892
104.473	387.900	4732.495	674.260	15380.445	45.885
105.339	390.500	4760.088	662.555	15473.969	46.822
106.203	393.200	4728.711	667.186	15681.203	46.508
107.071	395.800	4748.822	677.415	15858.941	48.538
107.939	398.500	4689.344	656.951	15922.037	47.044
108.806	401.100	4662.211	663.732	16066.201	47.359
109.671	403.400	4618.641	660.665	16151.981	48.771
110.557	406.000	4599.222	670.709	16211.753	48.617
111.418	408.700	4536.407	672.596	16286.248	46.743
112.283	411.300	4536.347	672.664	16292.986	46.894
113.150	413.900	4501.154	677.315	16344.276	47.416
114.017	416.600	4481.812	690.341	16402.800	49.650
114.882	419.200	4493.176	676.942	16327.527	47.572
115.749	421.800	4470.069	675.373	16217.815	49.497
116.616	424.100	4447.589	673.549	16326.725	50.506
117.486	426.800	4457.697	683.974	16274.569	50.479
118.355	429.400	4430.653	676.583	16215.790	48.654
119.221	432.000	4468.968	672.545	16146.122	51.398
120.088	434.700	4389.571	673.246	16140.849	49.548
120.955	437.300	4425.397	663.150	16110.154	50.232
121.819	439.900	4399.688	650.488	16000.251	50.068
122.684	442.600	4401.738	664.609	15966.271	49.145
123.549	445.200	4415.084	675.775	15989.196	50.821
124.413	447.500	4413.623	680.997	16018.974	51.803
125.280	450.200	4409.737	677.778	15953.394	51.865
126.155	452.800	4411.525	687.020	16015.255	52.637
127.019	455.500	4420.359	683.417	16008.021	52.846
127.888	458.100	4403.715	673.967	15954.145	53.190
128.754	460.800	4404.189	660.883	15820.056	54.401
129.619	463.400	4433.247	682.039	15857.489	53.988
130.484	466.000	4411.238	680.018	15868.951	53.094
131.366	468.700	4402.783	699.617	15884.999	52.662
132.233	471.000	4396.260	677.532	15713.541	53.807
133.135	474.000	4368.069	658.659	15620.209	54.165
134.004	476.600	4376.394	657.146	15557.481	53.946
134.872	478.900	4389.620	668.578	15554.412	54.458
135.739	481.600	4392.411	673.605	15523.182	55.433
136.603	484.200	4362.830	673.066	15388.927	54.718
137.467	486.900	4330.027	663.853	15308.726	56.595
138.357	489.500	4361.090	671.904	15260.149	54.786
139.227	492.100	4384.345	668.658	15135.981	54.507
140.091	494.800	4397.790	671.831	15089.124	57.971
140.960	497.400	4375.789	676.987	15017.724	55.294
141.824	500.000	4377.268	682.761	14957.455	57.253
142.685	502.300	4355.702	684.915	14887.099	56.184
143.551	505.000	4384.508	688.624	14886.907	57.916
144.417	507.600	4396.076	696.840	14975.719	57.784
145.284	510.200	4415.708	708.458	14945.864	56.118
146.150	512.900	4420.858	694.294	14817.736	58.340
147.015	515.500	4365.196	698.733	14840.993	60.689
147.881	518.200	4390.404	704.623	14785.665	57.212
148.746	520.800	4388.103	697.757	14749.736	58.424
149.612	523.100	4391.033	703.640	14691.467	57.371
150.473	525.700	4370.373	714.857	14720.060	61.735
151.337	528.400	4350.888	711.737	14607.406	58.059
152.204	531.000	4382.189	706.786	14585.066	57.501
153.070	533.600	4391.763	714.657	14583.436	59.924
153.930	536.300	4359.917	709.572	14544.628	58.911
154.832	538.900	4348.119	695.894	14506.826	60.535
155.703	541.600	4378.768	705.107	14458.479	59.184
156.601	544.200	4336.172	717.337	14479.800	61.619
157.488	546.800	4313.881	703.354	14482.411	59.455
158.354	549.500	4325.907	720.296	14484.130	59.350
159.218	552.100	4342.305	715.165	14447.322	62.871
160.087	554.700	4310.935	714.396	14468.120	62.391
160.954	557.400	4295.535	716.397	14517.983	61.067
161.817	559.700	4317.415	734.638	14548.487	61.032
162.683	562.300	4298.117	712.376	14473.686	62.444
163.550	565.000	4327.245	726.486	14510.163	62.001
164.417	567.600	4293.406	732.309	14476.896	62.876
165.284	570.300	4304.878	714.168	14476.526	61.242
166.151	572.900	4326.768	735.234	14540.756	61.840
167.017	575.600	4280.452	737.203	14548.360	63.292
167.881	578.200	4282.202	742.485	14498.369	62.759
168.748	580.500	4319.714	732.276	14491.211	63.156
169.614	583.100	4261.854	718.794	14415.761	63.793
170.478	585.700	4252.868	716.808	14405.877	63.803
171.344	588.400	4246.659	724.757	14409.469	63.738
172.207	591.000	4265.226	723.858	14393.561	64.175
173.069	593.700	4273.203	727.689	14438.202	63.552
173.946	596.300	4270.303	725.063	14441.094	64.818
174.811	598.900	4256.414	733.345	14414.105	66.333
175.677	601.200	4227.469	727.955	14375.144	66.722
176.543	603.900	4251.875	724.640	14416.589	67.810
177.410	606.500	4254.791	739.282	14485.646	66.040
178.275	609.100	4284.011	740.683	14433.783	67.804
179.143	611.800	4239.464	731.081	14453.448	68.089
180.045	614.400	4245.586	751.793	14502.343	67.290
180.940	617.100	4214.917	731.007	14490.485	67.787
181.807	619.700	4272.608	736.302	14469.598	65.972
182.672	622.400	4291.469	764.208	14515.895	68.149
183.536	625.000	4232.052	742.655	14440.737	67.616
184.401	627.600	4256.598	746.832	14558.231	69.340
185.289	630.300	4295.975	774.284	14661.256	70.553
186.154	632.900	4279.686	767.832	14644.584	68.723
187.019	635.500	4265.144	763.797	14574.839	71.055
187.886	637.900	4246.658	755.360	14552.245	69.434
188.749	640.500	4261.055	752.635	14558.091	70.678
189.615	643.100	4267.769	768.861	14647.602	69.620
190.482	645.800	4247.361	776.483	14631.440	73.965
191.348	648.400	4234.849	764.143	14604.413	70.736
192.216	651.000	4254.264	754.005	14499.299	70.002
193.082	653.700	4233.885	743.580	14518.136	72.480
193.947	656.300	4239.080	765.301	14571.324	70.443
194.850	658.900	4248.155	773.773	14598.503	69.672
195.736	661.600	4271.562	779.863	14558.040	70.981
196.600	664.200	4245.189	757.678	14601.636	74.169
197.466	666.900	4247.510	771.841	14631.656	73.778
198.361	669.500	4288.188	792.508	14697.466	73.659
199.243	672.100	4283.564	789.685	14619.238	74.299
200.103	674.400	4241.478	779.189	14676.756	72.945
200.969	677.000	4251.621	785.615	14673.687	75.189
201.837	679.700	4241.608	788.694	14720.009	75.988
202.702	682.300	4256.610	786.074	14714.087	76.185
203.567	685.000	4234.971	774.530	14663.739	75.582
204.431	687.600	4182.224	768.541	14624.473	74.642
205.299	690.200	4224.528	779.414	14676.756	74.262
206.165	692.900	4209.461	775.591	14657.116	74.880
207.032	695.200	4193.267	778.434	14658.759	76.785
207.898	697.800	4201.013	783.691	14686.729	75.447
208.764	700.500	4206.803	777.698	14716.073	75.625
209.631	703.100	4234.735	808.283	14809.292	78.614
210.497	705.800	4237.399	807.489	14761.250	77.362
211.362	708.400	4221.677	788.518	14745.240	77.137
212.252	711.000	4238.155	787.119	14747.163	77.164
213.119	713.700	4208.007	790.596	14746.514	78.832
213.986	716.300	4194.566	792.077	14742.731	79.028
214.852	718.900	4177.886	786.805	14730.389	80.883
215.708	721.200	4202.902	797.808	14709.196	79.037
216.574	723.900	4210.136	797.801	14740.438	82.257
217.443	726.500	4212.682	795.616	14792.352	79.935
218.309	729.200	4200.567	802.299	14711.972	81.876
219.175	731.800	4183.835	783.751	14106.303	79.722
220.035	734.400	4146.011	780.697	14551.824	81.912
220.901	737.100	4177.249	799.445	14706.674	80.590
221.767	739.400	4210.187	811.082	14711.055	83.182
222.645	742.000	4215.698	804.363	14769.821	85.866
223.507	744.600	4237.937	820.212	14893.148	84.479
224.372	747.300	4226.812	825.436	14892.843	85.483
225.238	749.900	4235.650	826.891	14891.607	85.292
226.105	752.500	4232.518	839.143	14907.604	84.853
226.970	755.200	4223.069	834.614	14983.373	87.343
227.835	757.800	4231.076	839.162	14880.603	84.690
228.720	760.400	4224.213	828.093	14922.710	86.825
229.588	763.100	4244.476	830.546	14866.911	86.266
230.452	765.400	4210.686	829.950	14895.377	89.341
231.318	768.000	4272.673	848.679	14933.204	89.532
232.182	770.600	4242.343	853.669	14940.821	88.377
233.049	773.300	4269.047	844.496	14944.043	87.209
233.915	775.900	4240.882	853.240	14949.813	89.903
234.780	778.600	4251.009	859.126	14941.623	87.671
