Mon, Jul 24, 2017	4:53 PM
 Notes: HOAc_3.73E-09_15s_724_2 masses
 waiting time: 50.000
 time(ms)	 temp (K)	 MS1=61.297	 MS2=44.784	 MS3=28.250	 MS4=44.784	 MS5=61.297	 MS6=31.397	 MS7=68.640	 MS8=90.000
0.000	93.400	14450.000	40040.000
0.318	93.300	14210.000	40450.000
0.634	93.300	14040.000	41140.000
0.950	93.300	13960.000	41680.000
1.265	93.300	14470.000	41830.000
1.583	93.300	14990.000	42170.000
1.899	93.300	14680.000	42180.000
2.216	93.300	14340.000	42730.000
2.533	93.300	14960.000	42450.000
2.849	93.300	14980.000	43200.000
3.165	93.300	15380.000	42960.000
3.483	93.200	14720.000	43100.000
3.796	93.300	15350.000	43380.000
4.111	93.200	14960.000	42790.000
4.432	93.300	14890.000	43090.000
4.751	93.300	14910.000	42890.000
5.068	93.300	14710.000	43980.000
5.385	93.200	14870.000	43630.000
5.701	93.300	14430.000	43800.000
6.019	93.200	15260.000	43700.000
6.334	93.300	14660.000	43890.000
6.651	93.300	14670.000	43400.000
6.968	93.200	15090.000	43740.000
7.282	93.200	15150.000	43900.000
7.599	93.200	14900.000	43390.000
7.914	93.200	15010.000	43140.000
8.232	93.200	14630.000	44000.000
8.548	93.200	14670.000	44050.000
8.865	93.300	14710.000	44410.000
9.182	93.300	14450.000	43780.000
9.497	93.300	14880.000	44960.000
9.814	93.400	14400.000	45270.000
10.129	93.500	14990.000	46060.000
10.446	93.600	14860.000	45890.000
10.760	93.700	14730.000	46830.000
11.075	94.000	17310.000	47970.000
11.392	94.300	16200.000	46400.000
11.709	94.500	15990.000	46770.000
12.026	94.900	16330.000	47990.000
12.343	95.300	16480.000	49800.000
12.662	95.800	16410.000	50920.000
12.976	96.500	16800.000	51320.000
13.292	97.000	16740.000	51510.000
13.609	98.000	16360.000	51080.000
13.924	98.900	16240.000	50560.000
14.239	99.500	15910.000	51040.000
14.556	100.500	15440.000	51570.000
14.873	101.500	15520.000	51520.000
15.190	102.600	15330.000	52280.000
15.505	103.700	14750.000	53020.000
15.823	104.900	15570.000	53140.000
16.139	106.100	15260.000	53280.000
16.456	107.000	14970.000	52710.000
16.772	108.200	15100.000	53910.000
17.088	109.400	15310.000	51860.000
17.405	110.700	15050.000	51850.000
17.722	111.900	15150.000	51920.000
18.038	113.000	14880.000	50470.000
18.353	114.200	14860.000	50700.000
18.669	114.900	14850.000	50390.000
18.986	116.000	14820.000	50610.000
19.301	117.000	14740.000	49940.000
19.616	118.100	14940.000	50680.000
19.933	119.100	14510.000	50730.000
20.251	120.100	14690.000	50420.000
20.568	121.100	14860.000	50970.000
20.883	122.000	14680.000	50760.000
21.201	122.700	15020.000	50420.000
21.516	123.900	14790.000	51150.000
21.834	124.500	14220.000	51230.000
22.150	125.400	14530.000	51160.000
22.466	126.300	14500.000	50900.000
22.782	127.200	14450.000	50210.000
23.100	128.100	14430.000	50950.000
23.416	128.700	14750.000	50600.000
23.733	129.900	14280.000	50670.000
24.049	130.800	13930.000	51050.000
24.364	131.400	14700.000	51950.000
24.680	132.300	14400.000	51990.000
24.996	133.200	14890.000	51510.000
25.314	134.200	14430.000	50760.000
25.630	135.100	14340.000	51920.000
25.947	136.100	14670.000	52820.000
26.264	137.000	14800.000	52350.000
26.580	138.000	14760.000	53350.000
26.897	138.600	14880.000	52490.000
27.215	139.600	15110.000	53400.000
27.533	140.500	14920.000	53140.000
27.848	141.500	14730.000	52890.000
28.166	142.500	14620.000	54130.000
28.482	143.500	14680.000	53250.000
28.800	144.400	14430.000	53720.000
29.116	145.100	15230.000	55010.000
29.433	146.100	14410.000	54130.000
29.749	147.000	14680.000	54320.000
30.066	148.000	14890.000	54750.000
30.385	149.000	14690.000	54180.000
30.701	150.000	14530.000	55080.000
31.019	151.000	14730.000	54290.000
31.336	152.000	15030.000	55630.000
31.653	153.000	15610.000	55370.000
31.970	153.600	15040.000	55260.000
32.286	154.600	15480.000	56120.000
32.604	155.600	15540.000	54640.000
32.921	156.500	15490.000	55450.000
33.238	157.500	15270.000	56490.000
33.554	158.500	15550.000	55710.000
33.870	159.500	15620.000	55110.000
34.188	160.500	15790.000	55810.000
34.505	161.100	15500.000	55860.000
34.824	162.400	15410.000	55770.000
35.142	163.100	15010.000	57170.000
35.459	164.000	14520.000	56720.000
35.774	165.000	14750.000	57480.000
36.091	166.000	14570.000	55420.000
36.407	167.000	14130.000	56290.000
36.724	167.900	14340.000	57020.000
37.042	168.900	14730.000	56700.000
37.358	169.600	14500.000	57140.000
37.674	170.500	14300.000	57220.000
37.991	171.500	14720.000	57110.000
38.309	172.400	14610.000	57960.000
38.624	173.400	14680.000	57060.000
38.942	174.400	14490.000	57700.000
39.259	175.400	14340.000	57120.000
39.577	176.300	14270.000	57500.000
39.893	177.300	14530.000	58620.000
40.211	178.300	14730.000	58360.000
40.528	178.900	14490.000	57780.000
40.846	179.900	15030.000	58520.000
41.163	180.900	14690.000	59490.000
41.480	181.800	14480.000	58760.000
41.796	182.800	14030.000	57960.000
42.112	183.500	14730.000	58830.000
42.429	184.400	14370.000	57950.000
42.744	185.400	14820.000	58670.000
43.062	186.400	14570.000	59290.000
43.379	187.000	14320.000	58380.000
43.696	188.300	14520.000	59380.000
44.013	189.300	14580.000	59220.000
44.329	190.000	14220.000	58890.000
44.647	191.300	14160.000	60200.000
44.962	192.200	14190.000	60200.000
45.281	192.900	14180.000	60010.000
45.596	193.900	14460.000	59720.000
45.912	194.800	14330.000	59350.000
46.230	195.800	14000.000	59670.000
46.545	196.800	14580.000	60090.000
46.864	197.800	14460.000	60160.000
47.179	198.400	13960.000	59740.000
47.496	199.800	14430.000	60220.000
47.811	200.400	14100.000	60600.000
48.127	201.400	14110.000	60650.000
48.446	202.400	14150.000	59930.000
48.761	203.300	14180.000	60790.000
49.076	204.300	14290.000	61360.000
49.391	205.300	13780.000	61480.000
49.708	206.200	14430.000	60680.000
50.023	207.200	14370.000	61450.000
50.338	207.900	14520.000	61650.000
50.654	208.900	14330.000	61130.000
50.968	209.800	14250.000	61380.000
51.286	210.800	14650.000	61380.000
51.601	211.800	14270.000	61280.000
51.917	212.800	14800.000	60280.000
52.235	213.400	14770.000	61420.000
52.550	214.400	14360.000	61790.000
52.866	215.400	14780.000	62010.000
53.182	216.300	14710.000	61340.000
53.498	217.300	13950.000	61360.000
53.812	218.300	14680.000	60590.000
54.127	219.300	14200.000	61950.000
54.443	220.200	13720.000	61280.000
54.758	221.200	14170.000	61690.000
55.077	222.200	14410.000	61300.000
55.393	222.800	14520.000	62090.000
55.709	223.800	14390.000	61670.000
56.024	224.800	15010.000	62150.000
56.340	225.800	14310.000	62000.000
56.656	226.800	13860.000	61840.000
56.970	227.700	14500.000	61630.000
57.290	228.700	14320.000	62810.000
57.604	229.400	14330.000	62870.000
57.920	230.700	14150.000	62610.000
58.236	231.300	14060.000	62320.000
58.551	232.300	14620.000	62580.000
58.869	233.300	14020.000	63170.000
59.185	234.300	13870.000	62180.000
59.499	235.200	14120.000	62780.000
59.815	236.200	14070.000	62650.000
60.130	237.200	13820.000	63340.000
60.447	237.800	14200.000	62490.000
60.762	238.800	14740.000	62570.000
61.077	239.800	14150.000	62560.000
61.392	240.800	14060.000	62160.000
61.707	241.800	13980.000	61910.000
62.025	242.700	14150.000	62190.000
62.341	243.700	14140.000	61850.000
62.657	244.700	14360.000	63620.000
62.976	245.300	13950.000	64060.000
63.293	246.300	13900.000	64470.000
63.609	247.200	13810.000	63080.000
63.924	248.200	13990.000	62180.000
64.240	249.200	14150.000	63070.000
64.556	250.200	13840.000	62340.000
64.871	250.900	13660.000	63070.000
65.190	251.800	13460.000	61390.000
65.506	252.800	13630.000	63960.000
65.821	253.800	13520.000	63460.000
66.136	254.800	13710.000	62850.000
66.454	255.800	13240.000	63390.000
66.771	256.700	13700.000	63660.000
67.086	257.700	13400.000	63650.000
67.403	258.700	13270.000	63670.000
67.722	259.700	13700.000	62860.000
68.036	260.300	13490.000	63350.000
68.351	261.300	13420.000	63900.000
68.666	262.300	13450.000	62940.000
68.983	263.300	13410.000	63460.000
69.299	264.200	12950.000	63600.000
69.617	264.900	13430.000	64080.000
69.933	265.800	13080.000	63580.000
70.248	266.800	13250.000	63150.000
70.566	267.800	13110.000	63330.000
70.882	268.800	13070.000	64270.000
71.200	269.800	13580.000	64190.000
71.516	270.700	13450.000	63710.000
71.834	271.700	13190.000	63270.000
72.150	272.700	13540.000	63940.000
72.467	273.600	12990.000	64230.000
72.784	274.600	13170.000	64040.000
73.100	275.300	13010.000	62890.000
73.418	276.200	13100.000	63430.000
73.732	277.200	13120.000	63770.000
74.049	278.200	13300.000	64200.000
74.366	278.800	12620.000	64350.000
74.683	280.200	13090.000	63680.000
75.002	281.100	13310.000	63760.000
75.318	282.100	12920.000	62840.000
75.636	282.800	13230.000	63980.000
75.955	283.800	12960.000	63900.000
76.271	284.700	12710.000	63920.000
76.590	285.700	12890.000	64000.000
76.905	286.700	13220.000	63680.000
77.222	287.700	12920.000	64630.000
77.539	288.700	13030.000	63570.000
77.856	289.600	12910.000	65200.000
78.174	290.600	13170.000	64890.000
78.490	291.300	12810.000	64260.000
78.806	292.300	13390.000	64990.000
79.122	293.300	12930.000	64220.000
79.438	294.200	12880.000	64250.000
79.757	295.200	12730.000	64000.000
80.074	296.200	12650.000	64820.000
80.392	297.200	12980.000	64650.000
80.708	297.800	12930.000	63570.000
81.025	298.800	12560.000	64070.000
81.342	299.800	12500.000	64610.000
81.660	300.800	12520.000	64590.000
81.976	301.700	12860.000	64660.000
82.294	302.700	12830.000	65180.000
82.612	303.700	12680.000	64780.000
82.929	304.400	13140.000	63850.000
83.246	305.600	12940.000	64850.000
83.562	306.300	12780.000	64960.000
83.879	307.300	12740.000	63940.000
84.195	308.200	12720.000	64240.000
84.512	309.200	12650.000	64830.000
84.829	310.200	12550.000	64110.000
85.146	311.200	12690.000	64800.000
85.464	312.200	12900.000	66310.000
85.780	313.100	12580.000	64750.000
86.096	314.100	12550.000	65690.000
86.414	315.100	12750.000	65140.000
86.730	315.700	12610.000	66180.000
87.046	316.700	12420.000	65110.000
87.361	317.600	12670.000	64770.000
87.677	318.600	12820.000	64530.000
87.992	319.600	12080.000	64750.000
88.308	320.300	12430.000	64840.000
88.625	321.600	12580.000	64210.000
88.942	322.200	12630.000	65280.000
89.258	323.200	12550.000	65390.000
89.573	324.200	11940.000	65610.000
89.890	325.200	12370.000	65590.000
90.206	326.100	12350.000	65380.000
90.523	327.100	12600.000	64720.000
90.839	328.100	12460.000	65100.000
91.158	329.100	12770.000	65750.000
91.475	329.700	12450.000	66060.000
91.790	330.700	12650.000	65650.000
92.105	331.700	12140.000	65640.000
92.421	332.700	12560.000	66370.000
92.739	333.600	12440.000	65950.000
93.055	334.300	12730.000	66430.000
93.370	335.600	12340.000	66140.000
93.687	336.500	12860.000	67720.000
94.004	337.500	12270.000	66740.000
94.318	338.200	12310.000	67260.000
94.635	339.200	12090.000	66740.000
94.951	340.200	11860.000	67820.000
95.268	341.100	11890.000	67870.000
95.584	342.100	11980.000	68160.000
95.899	343.100	12780.000	68380.000
96.215	343.700	12100.000	68550.000
96.533	344.700	12040.000	67740.000
96.849	345.700	12150.000	69380.000
97.165	346.700	12190.000	69110.000
97.481	347.700	11920.000	69550.000
97.795	348.700	12160.000	71320.000
98.111	349.600	11580.000	70710.000
98.426	350.600	12490.000	71170.000
98.742	351.600	11920.000	73070.000
99.057	352.200	12120.000	72230.000
99.372	353.200	12420.000	72620.000
99.689	354.200	12280.000	73070.000
100.003	355.200	11960.000	75470.000
100.320	356.100	11940.000	75780.000
100.637	356.800	12260.000	77210.000
100.952	358.100	12000.000	79020.000
101.267	359.100	11880.000	78860.000
101.585	359.700	12090.000	81210.000
101.903	360.700	12010.000	82500.000
102.218	361.700	11960.000	84580.000
102.535	362.700	12180.000	85810.000
102.850	363.600	11620.000	88460.000
103.166	364.600	11820.000	92030.000
103.482	365.600	12100.000	92600.000
103.798	366.300	12280.000	97340.000
104.113	367.200	12140.000	100680.000
104.430	368.200	12040.000	104920.000
104.748	369.200	11790.000	107860.000
105.066	370.100	11950.000	111920.000
105.383	371.100	11930.000	116740.000
105.697	372.100	12000.000	121340.000
106.014	373.100	11920.000	128330.000
106.330	374.100	11890.000	134410.000
106.647	374.700	12080.000	142230.000
106.964	375.700	11870.000	150630.000
107.280	376.700	12170.000	159550.000
107.597	377.700	12050.000	168020.000
107.914	378.600	11950.000	178700.000
108.230	379.600	12300.000	187770.000
108.546	380.600	12000.000	196390.000
108.862	381.200	11820.000	206590.000
109.178	381.900	11820.000	212850.000
109.493	383.200	12210.000	220870.000
109.810	384.100	12110.000	226020.000
110.127	385.100	11620.000	231020.000
110.441	386.100	11690.000	237820.000
110.757	387.100	11630.000	242280.000
111.073	388.000	12210.000	245200.000
111.390	389.000	12180.000	246230.000
111.707	389.700	11960.000	245130.000
112.023	390.600	12630.000	243480.000
112.337	391.600	12360.000	239710.000
112.653	392.600	11850.000	235790.000
112.970	393.600	11980.000	233860.000
113.286	394.200	11900.000	229670.000
113.603	395.200	11640.000	224240.000
113.918	396.500	11910.000	222880.000
114.237	397.200	11890.000	219850.000
114.554	398.100	11700.000	219350.000
114.871	399.100	11830.000	216330.000
115.190	400.100	12300.000	215990.000
115.506	401.100	12150.000	212810.000
115.824	401.700	11790.000	209840.000
116.142	403.000	11650.000	207940.000
116.458	404.000	12030.000	209290.000
116.778	405.000	12190.000	209420.000
117.097	405.600	12220.000	209690.000
117.415	406.600	11540.000	207100.000
117.730	407.600	11790.000	206950.000
118.047	408.600	11980.000	207090.000
118.364	409.500	12310.000	206330.000
118.679	410.500	12140.000	205440.000
118.997	411.400	11530.000	206510.000
119.313	412.100	11550.000	210040.000
119.631	413.100	12170.000	210550.000
119.948	414.100	11800.000	215100.000
120.266	415.000	11450.000	220320.000
120.583	416.000	11950.000	227600.000
120.900	417.000	11420.000	232480.000
121.218	417.900	12040.000	240200.000
121.534	418.900	11890.000	249390.000
121.851	419.600	12090.000	256960.000
122.167	420.500	12090.000	274140.000
122.483	421.500	11830.000	291360.000
122.800	422.500	12010.000	307840.000
123.118	423.500	11950.000	326750.000
123.435	424.400	12120.000	353220.000
123.752	425.400	11870.000	362780.000
124.069	426.100	11820.000	333240.000
124.384	427.300	11950.000	318870.000
124.701	428.000	12110.000	300530.000
125.019	429.000	11750.000	282090.000
125.336	429.900	12040.000	240360.000
125.652	430.900	11610.000	173460.000
125.967	431.900	12070.000	140040.000
126.284	432.800	11530.000	128650.000
126.601	433.800	11280.000	122190.000
126.917	434.500	11500.000	119120.000
127.233	435.800	11540.000	117860.000
127.550	436.400	11540.000	116020.000
127.868	437.400	11350.000	114740.000
128.183	438.400	11350.000	113560.000
128.499	439.300	11500.000	110800.000
128.815	440.300	11560.000	110970.000
129.133	440.900	11470.000	110270.000
129.450	442.200	11630.000	109240.000
129.766	443.200	11670.000	109080.000
130.082	443.900	11450.000	108860.000
130.398	444.800	12010.000	109170.000
130.716	445.800	11430.000	107590.000
131.030	446.800	11390.000	107560.000
131.346	447.800	11690.000	104900.000
131.661	448.700	11770.000	104040.000
131.979	449.400	11650.000	104840.000
132.294	450.400	11140.000	103310.000
132.609	451.300	11360.000	103010.000
132.924	452.300	11080.000	101810.000
133.240	453.300	11650.000	103240.000
133.554	454.300	11080.000	100180.000
133.870	455.200	10980.000	100100.000
134.186	456.200	11540.000	98640.000
134.501	457.200	11360.000	97930.000
134.818	458.100	11460.000	97170.000
135.134	458.800	11360.000	95660.000
135.449	459.800	11730.000	96460.000
135.764	460.700	10990.000	96650.000
136.079	461.700	11840.000	94690.000
136.394	462.700	11710.000	94360.000
136.710	463.700	11440.000	94360.000
137.026	464.700	11430.000	94160.000
137.341	465.300	11300.000	93090.000
137.658	466.300	10830.000	94450.000
137.974	467.300	11170.000	92440.000
138.290	468.300	11050.000	92500.000
138.605	469.200	11090.000	91330.000
138.920	470.200	11540.000	91380.000
139.236	471.200	11260.000	92160.000
139.554	471.900	11470.000	91120.000
139.868	472.800	11700.000	91700.000
140.184	473.800	11460.000	91750.000
140.500	474.800	11460.000	90120.000
140.815	475.700	11210.000	90000.000
141.131	476.700	10980.000	90060.000
141.446	477.700	11030.000	88360.000
141.763	478.600	11060.000	88980.000
142.078	479.600	11130.000	88560.000
142.394	480.200	11540.000	87570.000
142.711	481.200	11070.000	89190.000
143.027	482.200	11000.000	87860.000
143.345	483.200	10920.000	88520.000
143.661	483.800	11340.000	87920.000
143.978	484.800	11160.000	89290.000
144.294	486.100	11060.000	87900.000
144.610	486.800	11330.000	87690.000
144.926	487.700	11110.000	86900.000
145.244	488.700	10770.000	87440.000
145.561	489.700	10900.000	86650.000
145.877	490.600	11420.000	87120.000
146.193	491.600	11220.000	86620.000
146.508	492.300	11010.000	87000.000
146.824	493.600	10800.000	87220.000
147.140	494.200	10940.000	86620.000
147.456	495.200	11190.000	85960.000
147.773	496.200	10750.000	85550.000
148.088	497.200	11240.000	86770.000
148.405	498.100	10490.000	85430.000
148.721	499.100	10600.000	85830.000
149.037	499.800	10860.000	85420.000
149.354	500.700	10900.000	85690.000
149.670	502.000	10350.000	84060.000
149.986	502.700	10640.000	84180.000
150.303	503.600	11200.000	86360.000
150.619	504.600	11260.000	86020.000
150.935	505.600	10940.000	86080.000
151.251	506.600	10820.000	86200.000
151.568	507.500	10780.000	85620.000
151.884	508.500	11160.000	85360.000
152.201	509.200	11030.000	84790.000
152.517	510.100	10530.000	85310.000
152.834	511.100	10700.000	84730.000
153.150	512.100	11270.000	86140.000
153.467	513.100	11140.000	84380.000
153.784	514.000	10870.000	85280.000
154.100	515.000	11030.000	85760.000
154.417	516.000	10930.000	84930.000
154.733	517.000	10940.000	84020.000
155.052	517.600	10840.000	83670.000
155.368	518.600	10790.000	83670.000
155.684	519.600	10440.000	85200.000
156.000	520.500	11270.000	84720.000
156.317	521.500	11310.000	84800.000
156.636	522.500	10570.000	83490.000
156.953	523.500	10730.000	83950.000
157.269	524.400	10810.000	83670.000
157.586	525.100	10710.000	84580.000
157.903	526.000	10950.000	83760.000
158.220	527.000	10600.000	84080.000
158.536	528.000	10380.000	83950.000
158.854	528.900	11250.000	83560.000
159.170	529.900	10740.000	83700.000
159.488	530.600	11120.000	82960.000
159.805	531.800	10830.000	82500.000
160.122	532.500	10510.000	83520.000
160.440	533.400	10870.000	83580.000
160.757	534.400	11020.000	83970.000
161.073	535.300	10790.000	82510.000
161.390	536.300	10520.000	81680.000
161.707	537.300	10810.000	82880.000
162.023	538.200	10510.000	82850.000
162.341	538.900	10650.000	83310.000
162.658	539.500	10460.000	83260.000
162.975	541.200	11030.000	82930.000
163.291	541.800	10680.000	82950.000
163.608	542.800	10750.000	83250.000
163.925	543.800	10780.000	82990.000
164.242	544.700	10540.000	83450.000
164.559	545.700	10890.000	83090.000
164.876	546.700	10360.000	82470.000
165.192	547.600	10570.000	83570.000
165.509	548.600	10650.000	82010.000
165.825	549.300	11100.000	82930.000
166.141	550.200	10920.000	83320.000
166.460	551.200	10690.000	82630.000
166.775	552.200	10350.000	83880.000
167.093	553.200	10660.000	83340.000
167.409	554.100	10730.000	82120.000
167.725	555.100	10810.000	82970.000
168.043	555.700	11010.000	83710.000
168.360	557.000	10790.000	83020.000
168.678	557.700	10920.000	81720.000
168.994	558.600	10720.000	83500.000
169.312	559.600	10640.000	83640.000
169.628	560.600	10660.000	81660.000
169.945	561.500	10570.000	83070.000
170.261	562.200	10500.000	83470.000
170.577	563.500	10610.000	83430.000
170.892	564.200	10610.000	83940.000
171.209	565.100	10970.000	83970.000
171.525	566.100	10710.000	83290.000
171.841	567.000	10750.000	83220.000
172.156	568.000	10760.000	83850.000
172.474	569.000	10690.000	83700.000
172.788	570.000	10520.000	83930.000
173.104	570.600	10740.000	83530.000
173.421	571.600	10730.000	84430.000
173.736	572.500	10630.000	84490.000
174.051	573.500	10540.000	83560.000
174.365	574.500	10370.000	84090.000
174.682	575.400	10330.000	83450.000
174.998	576.100	10720.000	85510.000
175.316	577.400	10570.000	83480.000
175.633	578.300	10490.000	85140.000
175.949	579.000	10620.000	83380.000
176.265	580.000	10340.000	83180.000
176.582	581.000	10280.000	83510.000
176.897	581.900	10130.000	85220.000
177.213	582.900	10880.000	84400.000
177.529	583.500	10530.000	84110.000
177.845	584.800	10950.000	83430.000
178.160	585.500	10820.000	82980.000
178.477	586.400	10480.000	84220.000
178.791	587.400	10510.000	84110.000
179.108	588.400	10440.000	85030.000
179.424	589.400	10490.000	85040.000
179.741	590.300	10920.000	84810.000
180.057	591.300	10450.000	84050.000
180.372	591.900	10250.000	84250.000
180.688	592.900	10460.000	84940.000
181.004	593.900	10530.000	83790.000
181.319	594.800	10640.000	84190.000
181.636	595.800	10620.000	84880.000
181.953	596.800	10110.000	83530.000
182.267	597.700	10240.000	84730.000
182.583	598.700	10720.000	84010.000
182.900	599.700	10670.000	82860.000
183.215	600.600	10330.000	83620.000
183.533	601.300	10490.000	84060.000
183.848	602.200	10120.000	84150.000
