Wed, Oct 04, 2017	2:36 PM
 Notes: GUA_RGA after purficaion_100417
 waiting time: 50.000
 time(s)	 temp (K)	 MS1=1.994	 MS2=17.798	 MS3=26.922	 MS4=27.907	 MS5=28.936	 MS6=30.937	 MS7=78.871	 MS8=125.586
0.000	97.300	1760.647	971.929	190.230	5371.697	397.108	126.293	102.896	101.750
3.691	97.300	1626.494	966.746	189.542	5357.853	398.916	125.541	102.488	101.329
4.645	97.300	1631.830	976.018	192.382	5338.022	402.877	126.344	103.978	101.711
5.608	97.300	1697.054	991.645	191.771	5316.689	392.943	128.305	103.864	101.355
6.607	97.300	1620.380	1012.826	192.077	5292.973	397.044	127.172	103.100	101.202
7.564	97.300	1616.241	1029.740	192.255	5326.177	399.923	128.076	103.456	101.660
8.518	97.300	1622.673	1040.120	191.580	5330.164	403.476	128.089	104.106	101.431
9.476	97.200	1613.834	1055.289	192.777	5364.705	401.629	128.382	103.571	102.132
10.428	97.200	1622.456	1068.701	195.031	5338.532	404.737	128.891	103.138	101.711
11.384	97.200	1627.958	1076.279	194.433	5331.769	409.335	127.706	103.775	101.928
12.340	97.200	1622.138	1094.734	195.974	5370.717	403.718	129.541	104.615	101.215
13.297	97.200	1627.487	1106.732	194.076	5367.736	404.801	129.235	104.857	101.992
14.256	97.200	1625.194	1120.169	195.070	5290.095	406.686	130.445	103.838	101.164
15.211	97.200	1695.283	1133.389	198.139	5308.499	409.093	129.770	102.144	101.520
16.181	97.200	1629.385	1139.872	194.051	5331.246	408.647	130.738	103.571	101.724
17.136	97.200	1616.394	1157.194	196.560	5305.774	402.585	129.553	104.284	101.775
18.092	97.200	1605.848	1171.306	197.044	5303.672	404.126	131.476	103.507	102.718
19.049	97.200	1617.183	1178.425	199.273	5293.012	403.896	130.088	104.271	101.342
20.054	97.200	1598.257	1198.753	199.133	5304.551	405.501	131.668	104.055	102.450
21.009	97.200	1605.988	1200.319	200.419	5265.947	406.711	130.954	103.800	102.004
21.991	97.100	1606.383	1216.227	199.909	5318.574	408.112	130.559	103.176	101.839
22.946	97.100	1603.046	1214.559	199.438	5328.253	403.209	130.585	103.342	101.227
23.901	97.100	1587.813	1244.719	200.381	5303.150	412.672	130.012	102.514	103.342
24.865	97.100	1595.748	1248.794	201.769	5317.873	411.347	131.158	103.061	102.259
25.817	97.100	1601.772	1252.042	201.871	5282.542	415.920	130.776	103.609	102.998
26.773	97.100	1603.976	1267.351	201.858	5310.486	408.329	132.699	103.736	102.450
27.729	97.100	1598.486	1273.299	201.985	5242.066	411.016	134.100	103.444	101.813
28.686	97.100	1596.601	1276.878	204.240	5256.420	413.321	131.706	103.151	101.444
29.679	97.200	1606.981	1298.441	203.055	5258.356	411.691	131.986	103.596	102.667
30.636	97.100	1603.160	1307.331	202.686	5226.489	408.838	132.470	103.380	102.106
31.589	97.100	1592.793	1305.968	206.405	5275.983	407.985	132.597	103.367	101.966
32.546	97.100	1578.706	1317.889	205.068	5235.252	410.316	135.196	103.456	102.476
33.505	97.100	1591.634	1330.257	205.259	5223.356	405.157	133.782	103.902	103.087
34.460	97.100	1599.110	1337.605	203.450	5232.781	409.857	133.833	103.202	102.909
35.414	97.100	1588.412	1342.000	206.163	5282.542	412.226	133.960	103.393	102.539
36.376	97.100	1586.043	1344.700	205.603	5269.666	412.939	134.546	103.507	102.718
37.333	97.100	1585.979	1355.424	207.169	5258.891	413.283	134.864	103.023	102.705
38.326	97.100	1585.355	1361.716	207.449	5280.823	409.322	134.622	103.074	103.291
39.288	97.100	1575.803	1361.843	206.596	5294.387	418.034	134.189	102.909	102.667
40.245	97.100	1575.535	1371.892	208.532	5250.765	416.824	135.297	103.775	102.616
41.211	97.100	1571.154	1380.464	210.952	5222.222	418.887	136.673	103.163	102.234
42.166	97.100	1573.026	1390.793	207.475	5219.166	409.157	135.934	103.673	102.463
43.123	97.100	1579.878	1405.911	207.895	5199.794	415.894	137.144	103.584	103.278
44.080	97.100	1575.484	1408.751	210.748	5217.306	415.346	136.966	103.533	103.125
45.032	97.100	1570.619	1409.235	209.271	5215.485	414.557	136.991	103.176	103.431
45.988	97.100	1554.596	1416.177	212.633	5201.921	417.512	136.647	103.647	103.800
46.944	97.100	1556.571	1434.530	211.461	5213.651	416.786	135.119	102.845	103.087
47.923	97.100	1545.566	1424.595	213.525	5235.023	416.111	138.201	103.915	103.660
48.877	97.100	1563.079	1431.116	212.226	5247.377	419.855	137.603	103.240	102.947
49.833	97.100	1570.542	1424.672	213.397	5251.287	418.378	136.049	103.775	102.960
50.800	97.100	1552.699	1445.330	209.411	5238.793	425.523	136.482	102.361	103.303
51.754	97.100	1573.701	1435.434	214.505	5240.627	425.536	136.202	103.469	103.253
52.740	97.100	1568.823	1442.248	213.194	5211.970	426.924	136.915	104.080	104.704
53.699	97.100	1586.183	1451.928	211.984	5231.329	427.064	138.889	103.826	103.749
54.658	97.100	1550.992	1453.036	210.366	5176.167	426.020	139.029	104.412	103.418
55.606	97.100	1548.738	1466.193	212.748	5207.346	427.815	140.838	103.864	103.889
56.559	97.100	1561.168	1462.372	217.575	5205.614	431.751	139.768	103.762	103.851
57.511	97.100	1544.878	1467.874	215.053	5165.940	427.663	139.768	103.163	103.953
58.498	97.100	1547.438	1480.126	214.875	5202.022	427.573	138.889	104.233	103.380
59.454	97.100	1558.214	1474.293	219.078	5207.652	432.388	141.831	103.100	103.800
60.408	97.100	1558.634	1484.750	215.894	5251.083	430.299	139.819	103.635	104.068
61.363	97.100	1548.037	1479.642	217.358	5250.357	433.572	138.838	104.055	103.838
62.317	97.100	1549.489	1478.929	217.728	5222.490	433.177	142.035	102.998	103.915
63.268	97.100	1555.029	1481.094	216.938	5241.212	432.311	140.889	103.291	104.220
64.226	97.100	1559.067	1482.050	216.327	5194.419	435.559	141.513	103.087	104.297
65.185	97.100	1561.983	1488.736	219.116	5209.524	431.649	140.074	103.189	104.590
66.140	97.100	1556.914	1495.155	220.275	5180.804	432.260	141.869	103.444	104.692
67.095	97.100	1561.652	1499.919	215.550	5152.656	425.103	142.481	104.399	104.131
68.052	97.100	1538.561	1493.729	220.899	5162.387	427.943	140.252	103.278	103.787
69.009	97.100	1548.203	1486.533	219.587	5164.463	422.288	141.666	104.208	103.966
69.963	97.100	1557.296	1486.813	217.855	5140.709	422.568	139.895	103.673	103.991
70.926	97.100	1547.337	1490.468	221.077	5123.146	419.473	139.386	103.673	104.450
71.882	97.100	1547.757	1487.768	220.517	5177.619	414.901	139.399	103.571	104.908
72.837	97.000	1549.285	1481.375	222.326	5181.160	422.950	140.545	103.533	105.201
73.792	97.000	1539.580	1479.222	216.480	5174.384	416.977	139.628	103.635	104.399
74.771	97.000	1542.382	1478.063	217.346	5175.773	414.952	140.226	104.080	105.978
75.727	97.000	1543.210	1488.978	222.287	5165.915	414.328	139.819	103.673	105.099
76.683	97.000	1550.240	1467.403	220.160	5154.999	417.499	139.832	103.596	104.641
77.862	97.000	1536.307	1485.437	219.575	5149.421	418.212	137.297	103.253	105.660
78.816	97.000	1537.924	1487.195	218.925	5149.039	415.563	139.144	103.647	105.380
79.773	97.000	1533.174	1477.897	223.052	5183.771	414.557	139.246	103.775	105.660
80.732	97.000	1546.407	1478.254	221.765	5128.660	416.875	139.067	103.889	105.074
81.689	97.000	1537.389	1476.076	218.581	5147.561	415.716	139.309	103.813	106.067
82.645	97.000	1559.016	1467.428	218.581	5155.866	418.072	138.673	103.011	105.902
83.605	97.000	1546.369	1475.796	221.459	5140.837	409.679	137.857	103.456	106.297
84.557	97.000	1541.338	1472.013	221.982	5108.677	409.106	137.768	103.940	106.080
85.507	97.000	1534.333	1473.223	222.848	5114.408	412.353	138.532	103.469	106.156
86.465	97.000	1531.900	1474.994	225.713	5080.249	405.794	137.399	103.393	105.163
87.418	97.000	1533.237	1472.497	222.529	5134.150	406.189	136.813	104.170	105.520
88.377	97.000	1535.517	1473.529	222.580	5106.614	408.443	137.666	103.087	105.609
89.327	97.000	1519.622	1463.862	226.197	5107.951	409.691	137.284	103.469	105.723
90.277	97.000	1535.364	1454.844	224.414	5156.108	409.004	135.998	102.909	106.742
91.230	97.000	1544.025	1462.257	227.433	5130.253	412.111	138.163	103.698	106.411
92.204	97.000	1534.906	1459.226	225.803	5156.197	408.787	137.628	103.202	106.730
93.155	97.000	1535.466	1457.213	223.332	5104.028	410.481	137.807	104.042	106.781
94.112	97.000	1537.924	1448.540	223.981	5143.613	405.488	138.240	103.902	107.073
95.068	97.000	1533.976	1466.957	225.701	5091.712	414.366	136.877	102.883	106.793
96.021	97.000	1548.610	1449.801	224.376	5097.061	410.710	137.717	103.456	107.889
96.980	97.000	1545.439	1459.697	226.974	5118.662	406.113	137.259	103.520	107.163
97.985	97.000	1532.486	1450.157	226.376	5113.950	404.954	136.775	103.609	108.385
98.940	97.000	1529.684	1460.614	224.223	5072.111	401.184	135.680	102.998	107.468
99.896	97.000	1532.002	1443.445	226.541	5100.971	394.561	136.851	103.367	107.494
100.854	97.000	1520.081	1452.221	229.076	5080.211	402.954	137.717	104.182	107.698
101.806	97.000	1533.760	1429.639	229.025	5101.366	405.603	139.602	103.456	107.290
102.761	97.000	1532.970	1430.696	228.082	5140.174	399.948	136.036	103.100	108.322
103.715	97.000	1531.875	1425.385	227.790	5128.928	403.158	136.928	103.418	108.029
104.672	97.000	1528.028	1429.563	226.529	5117.580	406.469	136.597	103.736	108.895
105.627	97.000	1542.280	1427.907	228.592	5137.245	403.043	135.030	103.253	108.156
106.584	97.000	1538.115	1422.112	228.681	5125.451	402.355	136.711	103.189	108.564
107.538	97.000	1520.641	1423.003	225.764	5070.901	402.546	137.335	103.176	109.633
108.496	97.000	1535.148	1421.373	226.771	5075.524	401.795	135.641	103.826	108.424
109.450	97.000	1518.794	1427.015	228.707	5046.791	402.304	136.214	104.004	109.073
110.408	97.000	1520.692	1417.476	228.414	5061.043	398.980	135.756	104.029	109.875
111.361	96.900	1527.964	1414.865	227.433	5094.845	400.572	137.501	103.495	108.818
112.318	96.900	1519.164	1405.554	230.464	5082.873	399.859	137.182	102.514	109.812
113.287	96.900	1515.203	1406.166	227.178	5107.824	397.452	135.081	103.826	108.589
114.242	96.900	1512.719	1385.622	228.910	5113.453	393.962	135.705	103.303	108.385
115.214	96.900	1518.348	1394.818	230.719	5103.315	399.490	137.004	102.692	109.264
116.171	96.900	1527.850	1389.086	232.285	5115.542	401.413	138.380	102.896	109.162
117.127	96.900	1536.141	1389.328	228.834	5125.120	404.138	136.138	102.705	109.532
118.083	96.900	1523.010	1396.053	227.356	5102.551	399.833	136.304	103.991	110.385
119.039	96.900	1525.608	1378.286	233.597	5094.068	401.018	137.335	103.609	109.532
119.997	96.900	1524.729	1393.200	230.057	5062.813	403.094	135.425	104.029	111.315
120.954	96.900	1531.391	1383.317	229.483	5088.452	400.177	135.909	103.647	110.601
121.915	96.900	1522.755	1387.583	228.707	5045.759	403.005	138.227	103.214	110.589
122.867	96.900	1522.615	1382.985	232.056	5053.121	393.733	135.361	103.202	110.283
123.827	96.900	1533.123	1373.752	233.610	5044.422	397.528	137.068	102.756	109.162
124.778	96.900	1505.217	1373.344	231.687	5054.165	400.483	135.985	103.698	111.276
125.734	96.900	1518.641	1360.531	233.292	5086.223	394.981	134.597	103.036	110.614
126.693	96.900	1506.733	1361.397	234.795	5094.221	393.109	135.017	103.227	110.818
127.648	96.900	1510.057	1349.871	233.814	5082.478	402.699	134.826	103.813	110.627
128.604	96.900	1518.871	1354.965	231.560	5110.193	400.636	134.992	103.635	110.754
129.560	96.900	1529.022	1359.805	232.043	5097.201	394.229	133.947	104.220	110.487
130.518	96.900	1521.354	1346.687	233.712	5064.698	399.133	135.145	102.807	111.417
131.478	96.900	1516.081	1341.745	232.871	5031.227	398.050	135.425	103.635	111.710
132.434	96.900	1525.239	1347.578	231.496	5051.885	398.152	135.425	103.660	111.404
133.392	96.900	1511.382	1349.247	236.374	5059.705	399.324	136.507	103.813	111.251
134.349	96.800	1505.153	1339.554	234.731	5057.757	395.783	136.176	103.520	112.588
135.309	96.900	1504.568	1343.337	235.393	5032.628	394.229	136.584	103.647	112.143
136.266	96.800	1509.165	1336.166	238.514	5047.504	395.401	137.233	103.291	111.633
137.224	96.800	1515.763	1330.944	231.776	5080.733	394.854	134.482	104.462	112.053
138.185	96.800	1499.932	1317.533	237.329	5085.891	394.688	135.272	103.940	113.212
139.184	96.800	1518.629	1317.622	235.126	5123.069	396.344	135.081	103.265	112.665
140.141	96.800	1509.306	1319.825	238.272	5085.267	395.185	135.004	102.883	112.728
141.125	96.900	1514.999	1308.261	237.546	5068.672	397.286	136.647	103.418	112.168
142.108	96.800	1505.434	1313.253	237.036	5080.428	397.694	136.622	103.469	113.098
143.064	96.800	1514.769	1306.987	235.597	5073.894	402.075	134.915	103.367	112.767
144.017	96.800	1526.474	1298.377	238.042	5071.767	400.216	137.042	104.475	113.340
144.976	96.900	1528.983	1308.579	236.336	5077.626	396.344	135.348	103.444	113.353
145.930	96.800	1524.882	1313.037	235.928	5170.576	403.018	136.240	104.004	113.429
146.905	96.800	1535.352	1326.805	239.392	5490.108	409.768	135.972	104.093	113.913
147.861	96.800	1552.342	1328.168	244.398	5926.421	419.562	137.475	104.857	115.607
148.818	96.800	1584.578	1355.245	247.518	6539.197	435.980	140.303	104.959	115.429
149.767	96.800	1599.632	1378.553	251.607	7189.545	454.982	140.507	105.201	117.530
150.720	96.800	1639.994	1383.240	254.396	7849.179	473.297	138.978	103.762	117.237
151.677	96.800	1662.028	1385.265	254.460	7983.981	477.628	139.411	104.628	117.747
152.630	96.800	1658.806	1386.564	255.364	8014.651	476.099	141.513	105.252	118.320
153.584	96.800	1658.437	1390.653	256.829	8048.581	471.922	140.609	104.386	119.046
154.540	96.800	1678.407	1398.868	259.898	8054.427	478.315	140.023	104.310	119.517
155.498	96.800	1676.229	1398.779	255.504	8132.017	480.608	140.851	104.959	118.256
156.445	96.800	1668.371	1402.791	257.669	8040.353	479.653	144.340	105.736	119.619
157.395	96.800	1669.925	1397.097	260.841	8038.340	477.207	140.991	105.290	120.370
158.347	96.800	1690.367	1406.739	259.592	8040.595	480.965	142.570	104.883	119.810
159.301	96.800	1674.803	1398.881	260.955	7990.006	475.412	141.653	105.367	121.109
160.256	96.800	1690.915	1404.803	264.827	8019.822	479.716	141.233	104.832	121.453
161.213	96.800	1682.763	1404.395	263.133	8047.765	472.368	140.456	106.322	121.173
162.168	96.800	1692.328	1391.150	264.203	8078.893	477.335	142.697	105.265	121.657
163.127	96.900	1659.214	1401.975	265.757	8079.670	477.462	142.634	105.800	121.058
164.085	96.900	1667.301	1383.737	265.553	8077.136	482.353	141.780	104.921	123.249
165.040	96.900	1681.502	1394.754	264.496	8116.886	482.760	141.615	104.870	122.332
165.996	96.900	1700.645	1391.646	267.553	8048.530	489.944	142.353	104.845	125.146
166.951	96.900	1696.111	1387.596	267.005	8089.681	483.219	141.946	105.329	123.249
167.907	96.800	1698.251	1383.775	265.591	8030.380	484.798	141.564	105.150	124.357
168.864	96.900	1687.578	1380.731	265.795	8007.149	483.894	142.634	105.125	124.217
169.821	96.900	1697.792	1385.673	267.425	8027.553	481.449	143.309	105.188	124.752
170.775	96.900	1692.226	1379.992	271.119	8011.034	477.398	141.653	105.252	124.484
171.734	96.800	1679.898	1387.571	271.157	8008.486	481.372	143.041	105.902	125.146
172.682	96.800	1699.486	1380.795	273.794	7985.739	482.531	142.621	105.125	125.936
173.643	96.800	1688.469	1381.533	272.380	8070.131	482.175	142.443	104.921	126.535
174.602	96.800	1688.775	1359.907	277.041	8075.238	479.182	142.048	105.762	126.153
175.581	96.800	1679.923	1364.161	273.284	8085.109	479.793	142.328	106.271	126.840
176.539	96.900	1681.464	1363.601	274.252	8105.882	476.023	142.392	105.036	126.789
177.495	96.900	1699.575	1364.976	275.895	8033.819	483.002	142.111	105.430	127.133
178.454	96.900	1698.149	1356.099	275.411	7878.205	472.100	142.022	105.290	126.446
179.411	96.900	1632.645	1306.821	269.667	5604.583	423.536	141.322	104.908	125.669
180.366	96.900	1608.089	1307.509	267.031	5416.441	414.748	141.309	103.787	124.561
181.354	96.900	1590.793	1279.247	265.744	5329.323	412.213	138.138	104.794	123.465
182.311	96.800	1581.649	1265.963	265.324	5313.938	418.263	139.284	104.845	123.223
183.261	96.900	1558.685	1251.214	267.247	5250.918	414.901	137.526	104.819	123.338
184.220	96.900	1543.936	1241.534	266.139	5223.598	409.386	138.634	104.195	123.121
185.179	96.900	1557.004	1241.522	264.598	5215.332	404.559	138.660	104.641	122.459
186.135	96.900	1548.789	1226.735	265.260	5202.583	411.360	138.163	105.099	122.128
187.090	96.900	1553.081	1215.743	262.853	5194.240	406.609	138.227	104.832	122.892
188.049	96.900	1539.491	1209.018	261.197	5219.624	409.360	137.131	104.348	122.166
189.006	96.900	1531.900	1201.567	259.478	5204.774	403.056	136.469	105.303	123.644
189.988	96.900	1538.014	1209.171	263.987	5199.233	408.851	137.208	104.946	122.739
190.949	96.900	1545.859	1207.006	260.255	5147.409	406.711	134.495	105.278	122.026
191.904	96.900	1540.332	1191.544	261.796	5167.927	406.851	137.998	103.838	122.039
192.895	96.900	1547.986	1190.092	261.248	5129.514	406.329	138.329	104.361	122.408
193.851	96.900	1545.299	1197.237	258.230	5135.920	405.488	137.807	104.361	121.618
194.812	96.900	1553.055	1181.495	261.286	5124.254	404.444	135.985	105.188	122.153
195.767	96.900	1521.889	1188.691	262.458	5129.106	402.292	135.094	104.195	121.478
196.723	96.900	1526.627	1186.105	263.184	5148.236	398.445	136.011	104.921	123.529
197.679	96.900	1524.806	1170.529	264.267	5124.215	401.859	138.354	103.928	122.867
198.642	96.900	1527.060	1174.171	265.821	5114.765	397.426	135.578	104.462	123.554
199.596	96.900	1520.896	1172.961	263.222	5158.833	402.776	136.367	104.131	122.701
200.552	96.900	1523.838	1167.421	263.197	5151.191	402.075	134.699	104.539	122.918
201.506	96.900	1535.874	1162.276	261.146	5139.652	408.583	134.928	104.310	122.294
202.463	96.900	1533.747	1157.754	261.936	5166.781	404.903	136.176	104.475	122.102
203.422	96.900	1528.092	1146.482	262.522	5150.758	404.571	136.316	104.768	122.879
204.377	96.900	1528.639	1152.456	262.203	5110.040	403.693	136.877	104.679	121.708
205.335	96.900	1520.272	1149.170	261.643	5113.772	404.075	136.635	104.768	122.548
206.290	96.900	1529.582	1148.902	263.859	5092.209	405.348	135.336	104.119	122.319
207.250	96.900	1522.628	1159.091	262.114	5107.365	400.254	139.271	104.628	122.943
208.201	96.900	1512.706	1148.673	262.407	5073.130	399.808	136.138	104.539	122.472
209.158	96.900	1513.763	1146.622	264.178	5104.690	400.929	136.533	103.902	124.229
210.102	96.900	1503.994	1139.821	259.592	5113.007	403.005	138.048	103.864	123.554
211.057	96.900	1517.240	1145.578	262.687	5148.631	398.432	136.507	104.603	124.892
212.014	96.900	1517.279	1132.039	267.069	5087.853	397.299	134.138	104.157	123.134
212.969	96.900	1531.785	1118.679	260.713	5141.435	400.139	135.922	105.214	123.796
213.928	96.900	1525.086	1125.938	264.611	5107.276	400.801	136.724	105.074	123.070
214.887	96.900	1530.295	1125.302	261.363	5120.637	401.247	138.240	103.928	122.994
215.849	96.900	1522.093	1124.308	264.942	5065.411	408.622	135.756	105.099	124.892
216.806	96.900	1524.105	1110.553	260.700	5104.499	402.559	136.355	104.819	124.115
217.766	96.900	1521.189	1113.418	265.235	5075.473	405.068	136.597	104.781	125.019
218.723	96.900	1513.687	1117.443	265.031	5089.076	402.241	136.520	104.488	123.898
219.681	96.900	1502.211	1117.430	265.451	5104.003	401.400	136.062	104.526	124.140
220.633	96.900	1516.795	1110.311	265.222	5100.997	403.425	136.023	105.367	123.516
221.590	96.900	1509.178	1108.502	263.923	5131.755	404.329	136.546	104.297	122.930
222.547	96.900	1509.751	1116.004	264.470	5136.213	395.465	136.355	103.635	122.905
223.507	96.900	1508.096	1112.514	263.885	5095.024	406.826	137.361	104.335	123.937
224.462	96.900	1512.859	1110.871	265.082	5148.045	397.987	137.144	103.558	124.497
225.411	96.900	1518.896	1095.970	262.878	5126.623	402.202	135.871	104.080	126.369
226.365	96.900	1514.298	1098.351	264.114	5114.905	398.662	138.265	104.348	123.860
227.324	96.900	1530.066	1082.800	263.541	5070.824	401.464	136.507	104.399	124.242
228.279	96.900	1515.521	1097.778	264.037	5094.782	400.114	136.826	104.819	124.000
229.238	96.900	1520.348	1099.740	265.528	5059.578	400.037	137.768	104.093	124.739
230.195	96.900	1508.465	1098.186	267.591	5081.638	396.114	138.927	104.017	125.197
231.156	96.900	1507.726	1091.002	268.393	5056.891	392.918	136.686	104.985	124.752
232.110	96.900	1502.326	1085.233	263.923	5085.420	403.795	136.558	104.246	123.975
233.062	96.900	1515.253	1078.724	264.980	5107.391	401.298	136.902	104.857	125.070
234.021	96.900	1512.286	1084.558	267.744	5152.134	402.432	135.310	104.641	126.051
234.979	96.900	1506.211	1081.959	266.470	5096.170	401.260	136.546	104.666	124.841
235.935	96.900	1515.228	1075.770	265.731	5136.837	403.400	136.202	104.437	124.204
236.896	96.800	1514.553	1076.304	268.177	5089.318	404.826	134.788	104.692	123.567
237.855	96.800	1524.233	1077.756	266.623	5108.690	406.660	136.176	103.660	123.529
238.840	96.800	1528.792	1062.982	263.553	5090.604	403.425	137.297	104.386	124.510
239.796	96.800	1514.922	1084.456	263.821	5073.499	402.062	136.176	104.755	124.459
240.750	96.900	1539.211	1078.291	266.139	5088.375	398.916	136.622	104.819	123.949
241.705	96.900	1497.957	1070.853	267.222	5068.659	396.789	137.781	105.239	124.420
242.660	96.900	1499.549	1065.924	269.591	5055.872	398.624	135.960	105.354	125.248
243.619	96.900	1503.472	1080.176	267.018	5080.517	398.165	136.851	105.099	124.701
244.581	96.900	1507.968	1065.580	268.113	5118.853	399.872	136.991	104.806	125.516
245.542	96.800	1494.735	1060.779	264.929	5126.992	399.974	137.297	103.991	124.408
246.499	96.800	1510.070	1050.844	264.904	5098.934	400.712	137.259	105.469	125.121
247.455	96.800	1514.451	1058.486	264.662	5093.342	405.476	135.476	104.539	126.497
248.436	96.800	1503.549	1045.011	269.157	5121.171	400.203	134.673	104.068	123.987
249.391	96.700	1521.176	1064.523	267.056	5116.421	401.273	134.482	105.405	125.019
250.360	96.700	1522.029	1050.933	264.076	5089.903	403.795	135.106	104.704	125.618
251.324	96.700	1516.005	1055.582	267.285	5065.067	400.458	137.361	104.590	125.503
252.372	96.700	1502.784	1045.240	268.317	5107.480	398.573	137.615	103.813	125.847
253.329	96.700	1520.552	1059.632	264.381	5072.709	400.254	135.336	104.743	125.134
254.285	96.700	1510.401	1052.768	267.425	5091.508	398.190	135.972	105.074	124.497
255.261	96.700	1511.534	1045.877	264.420	5092.069	401.744	137.068	104.552	123.274
256.236	96.700	1516.209	1047.826	267.056	5088.426	401.973	134.954	103.354	125.159
257.194	96.700	1511.560	1037.662	266.445	5099.176	398.827	136.189	104.361	124.854
258.168	96.700	1515.878	1052.449	270.253	5079.052	397.974	137.017	105.074	125.592
259.128	96.700	1498.556	1046.157	269.947	5090.604	396.407	136.902	104.717	126.102
260.084	96.700	1511.101	1033.867	267.897	5106.091	402.343	134.610	105.507	126.165
261.047	96.700	1512.273	1039.534	266.597	5123.833	399.566	136.431	104.934	126.076
262.005	96.700	1502.288	1037.547	268.597	5083.714	398.012	137.832	105.010	125.567
262.963	96.700	1511.114	1040.591	268.342	5133.844	398.916	135.794	104.870	123.835
263.922	96.700	1526.780	1038.706	262.853	5115.950	400.139	135.947	104.934	125.707
264.883	96.700	1524.373	1035.854	269.463	5091.839	408.405	139.042	105.596	125.694
265.841	96.700	1512.821	1033.281	266.903	5118.064	401.502	135.985	104.017	125.414
266.800	96.700	1522.513	1031.217	265.413	5096.450	401.553	136.240	105.036	125.936
267.760	96.700	1528.028	1032.478	266.827	5058.292	395.605	137.565	106.042	126.458
268.719	96.700	1516.336	1031.256	268.317	5068.965	399.209	137.055	105.125	125.401
269.678	96.700	1507.077	1030.644	266.521	5066.545	403.973	137.450	104.208	126.114
270.628	96.700	1494.786	1024.072	269.298	5068.634	399.961	137.093	104.564	125.096
271.588	96.700	1519.393	1032.975	263.210	5095.533	400.432	136.597	104.615	125.427
272.548	96.700	1498.785	1017.398	271.081	5086.732	397.375	136.393	105.940	126.013
273.506	96.600	1512.986	1031.217	269.170	5103.060	395.669	135.565	106.042	126.993
274.466	96.600	1505.345	1022.773	268.457	5116.217	404.673	136.698	105.303	126.522
275.470	96.600	1499.218	1034.198	266.980	5089.305	403.922	136.940	105.201	125.388
276.428	96.600	1516.960	1025.333	268.775	5090.540	401.349	136.737	105.061	126.471
277.391	96.600	1521.278	1020.442	266.215	5095.266	406.316	136.202	104.857	126.191
278.351	96.600	1516.973	1026.136	269.068	5101.048	401.273	136.864	104.615	125.248
279.309	96.600	1500.097	1013.412	266.164	5087.025	399.260	135.552	104.654	125.758
280.267	96.600	1516.247	1008.343	265.502	5068.786	397.987	135.756	105.596	126.535
281.225	96.600	1493.742	1014.444	267.464	5079.498	398.865	135.196	104.475	126.280
282.185	96.600	1508.580	1016.889	272.533	5062.673	401.158	136.686	105.138	125.822
283.139	96.600	1501.498	1015.501	268.266	5063.896	397.401	136.546	104.832	126.204
284.099	96.500	1498.887	1015.373	267.005	5067.322	401.680	135.922	104.870	126.471
285.056	96.600	1505.294	1018.596	268.661	5094.183	396.293	135.934	104.271	126.891
286.015	96.600	1490.252	1022.875	270.164	5097.609	398.101	136.584	104.972	125.923
286.970	96.600	1492.455	1016.978	269.030	5107.174	397.248	138.087	104.348	127.681
287.936	96.600	1505.472	1005.923	268.966	5114.345	398.305	136.418	104.615	125.032
288.893	96.600	1514.668	1008.674	270.291	5097.151	399.706	135.004	104.488	125.847
289.852	96.600	1516.642	1022.506	266.547	5123.146	400.508	136.342	104.310	125.554
290.810	96.600	1502.160	1015.781	269.234	5074.429	403.170	136.953	104.564	126.904
291.768	96.600	1506.720	1016.965	264.267	5071.219	398.471	136.597	104.921	125.325
292.724	96.600	1501.205	1013.514	266.406	5087.636	405.323	135.208	104.908	124.854
293.682	96.600	1500.466	1017.156	268.979	5073.677	399.082	135.425	104.564	126.191
294.641	96.600	1511.509	1013.565	271.450	5083.395	398.585	136.495	105.940	126.191
295.603	96.600	1497.053	1003.821	271.323	5057.744	401.629	135.106	105.061	125.834
296.562	96.600	1492.735	1007.056	269.998	5088.375	395.872	136.788	104.615	125.236
297.523	96.600	1494.251	1003.235	270.075	5108.562	398.598	135.030	104.768	126.471
298.482	96.600	1497.690	1003.860	268.903	5090.184	396.522	136.380	104.603	127.210
299.440	96.600	1493.640	1001.580	270.113	5098.857	400.801	136.889	104.845	126.204
300.395	96.600	1507.879	1006.203	269.692	5089.458	401.426	134.724	104.246	126.917
301.368	96.600	1507.051	1004.866	269.756	5096.679	407.182	135.947	105.469	127.057
302.324	96.600	1510.579	1002.102	268.966	5118.879	400.305	137.730	105.163	125.643
303.283	96.600	1502.237	1003.159	270.253	5049.886	403.718	138.201	105.290	124.535
304.240	96.600	1512.553	1001.720	269.234	5052.726	402.253	136.584	104.170	125.949
305.207	96.600	1514.056	998.434	266.738	5065.781	398.560	137.259	104.577	124.662
306.167	96.600	1500.454	1003.809	269.450	5071.639	396.051	136.558	104.577	125.618
307.128	96.500	1496.747	1002.611	271.323	5056.458	394.331	135.068	104.246	126.242
308.083	96.500	1492.926	1009.374	270.890	5067.143	396.649	137.195	105.125	126.802
309.042	96.500	1502.339	997.746	270.355	5082.809	398.598	135.616	104.755	125.159
310.003	96.500	1504.020	1005.464	270.444	5121.439	394.739	136.265	105.558	125.974
310.962	96.500	1502.835	997.275	271.781	5113.109	400.126	136.456	105.036	125.618
311.919	96.500	1501.842	1008.190	270.164	5095.316	401.426	137.526	103.877	125.974
312.878	96.500	1518.922	994.626	267.998	5117.924	396.471	137.131	104.908	126.993
313.839	96.500	1512.808	1009.069	266.954	5091.585	404.648	135.527	104.017	126.127
314.798	96.500	1519.164	1003.567	268.304	5088.184	399.324	136.940	104.794	126.815
315.757	96.500	1506.363	1001.834	268.011	5065.080	401.158	135.922	105.558	128.305
316.717	96.500	1522.972	1005.694	271.119	5065.742	399.133	138.278	104.921	126.102
317.676	96.500	1516.756	1000.408	269.591	5072.697	397.261	135.348	105.634	125.541
318.635	96.400	1502.199	1000.688	270.062	5042.116	399.235	137.182	104.628	126.547
319.594	96.400	1479.477	1002.293	268.865	5076.798	398.815	137.412	105.036	125.974
320.553	96.400	1507.408	999.453	267.374	5071.550	399.604	136.227	105.176	126.751
321.512	96.400	1491.131	990.932	270.737	5101.672	396.981	135.985	104.462	125.681
322.471	96.400	1500.747	985.863	269.705	5049.720	394.790	135.221	105.048	125.822
323.429	96.400	1495.932	993.365	267.820	5095.775	397.592	135.590	104.208	125.554
324.388	96.500	1507.497	998.026	269.820	5102.436	396.700	136.877	104.641	126.216
325.362	96.500	1510.554	997.262	273.131	5103.353	399.222	135.629	104.755	127.172
326.321	96.500	1508.465	996.409	269.947	5132.622	396.535	137.042	104.845	126.726
327.281	96.400	1511.866	1005.439	268.062	5081.701	399.044	137.883	105.456	124.510
328.239	96.400	1504.542	997.288	268.368	5070.035	400.547	137.654	104.870	125.070
329.194	96.400	1500.505	994.435	269.170	5059.387	405.234	138.278	105.520	125.974
330.156	96.400	1500.938	991.047	269.221	5094.934	405.196	135.208	105.494	126.089
331.107	96.400	1498.276	992.320	269.221	5084.656	395.121	138.036	104.615	124.955
332.065	96.400	1506.504	995.313	266.432	5033.914	398.152	137.373	105.329	125.592
333.018	96.400	1508.338	998.510	270.877	5073.894	397.070	137.857	105.023	125.936
333.976	96.400	1499.358	998.154	270.457	5102.309	399.286	137.068	104.552	125.707
334.933	96.400	1511.394	997.772	271.756	5077.473	399.999	136.673	105.252	125.439
335.893	96.400	1495.881	985.595	272.749	5094.641	402.139	136.367	105.698	125.656
336.850	96.400	1504.096	988.143	268.521	5107.391	401.387	137.908	105.571	125.567
337.805	96.400	1512.401	998.599	267.604	5100.156	397.528	136.635	104.361	126.204
338.760	96.400	1503.944	986.118	270.418	5076.581	401.082	134.724	105.749	126.433
339.719	96.400	1515.292	993.034	265.311	5053.337	399.133	138.023	105.265	125.605
340.679	96.400	1504.708	994.664	271.030	5057.566	398.522	136.405	104.679	124.357
341.637	96.400	1515.852	1001.580	271.361	5057.209	397.121	135.730	105.545	124.968
342.594	96.400	1493.079	999.287	271.106	5067.602	399.910	137.017	104.832	126.000
343.552	96.400	1499.575	985.583	273.029	5053.375	401.273	136.240	105.303	126.407
344.507	96.400	1485.972	988.321	271.450	5100.831	396.573	135.145	105.061	126.828
345.465	96.400	1498.734	993.314	275.118	5094.221	399.082	135.387	105.380	126.229
346.441	96.400	1486.711	990.741	271.616	5101.570	392.777	135.387	105.227	125.172
347.402	96.400	1494.366	992.601	270.215	5078.008	402.164	135.438	104.080	125.134
348.357	96.400	1510.121	994.422	269.616	5103.035	401.158	136.265	105.316	125.414
349.321	96.400	1508.860	996.689	267.756	5088.452	399.719	136.023	105.520	125.758
350.276	96.400	1506.414	992.639	269.234	5098.577	405.043	137.934	104.755	125.618
351.233	96.400	1506.707	1005.528	268.495	5077.575	399.986	137.501	104.526	125.605
352.189	96.400	1510.274	996.791	270.164	5056.585	401.910	137.794	105.469	126.153
353.153	96.400	1506.338	995.504	269.960	5047.708	403.387	137.756	104.704	124.089
354.110	96.500	1496.633	1004.216	270.660	5048.243	394.204	137.284	104.857	125.274
355.069	96.500	1492.735	996.332	273.564	5054.802	400.394	137.705	104.195	125.567
356.027	96.500	1501.944	993.250	268.011	5067.551	404.138	136.507	104.539	125.809
356.977	96.500	1485.412	992.346	271.310	5082.516	395.414	135.157	104.870	126.267
357.932	96.500	1496.302	992.702	270.266	5064.532	396.840	135.934	105.125	126.255
358.894	96.500	1496.684	1000.306	271.730	5089.598	399.031	138.787	105.036	125.771
359.850	96.500	1506.083	1006.012	270.202	5076.581	403.361	134.877	105.430	126.051
360.812	96.500	1501.447	995.301	269.323	5089.853	404.903	137.615	104.271	124.662
361.769	96.400	1499.053	1001.682	270.788	5100.526	398.955	137.526	104.908	125.070
362.731	96.400	1513.712	998.447	268.508	5014.109	399.260	137.246	104.717	125.529
363.691	96.400	1501.727	996.523	271.616	5072.034	404.724	137.692	104.412	124.051
364.661	96.400	1507.586	999.083	269.196	5074.429	404.610	135.705	105.201	125.287
365.619	96.400	1492.952	1008.712	272.074	5095.979	399.235	136.864	104.946	126.293
366.578	96.400	1500.250	991.760	273.539	5051.860	396.280	136.278	105.099	125.745
367.538	96.400	1493.487	998.790	272.036	5059.578	393.274	137.170	105.252	124.662
368.501	96.400	1491.691	997.453	272.927	5052.649	398.471	137.628	104.985	125.911
369.461	96.400	1492.939	1002.420	271.692	5091.254	400.050	137.170	105.532	127.324
370.419	96.400	1507.471	1003.630	270.890	5085.790	402.419	137.042	104.806	126.560
371.374	96.400	1502.886	1008.954	272.851	5113.428	404.419	135.998	104.654	126.879
372.334	96.400	1512.197	1002.178	267.158	5104.805	396.318	136.469	105.265	125.388
373.296	96.400	1503.689	1008.164	267.833	5090.477	400.840	135.565	105.660	127.184
374.254	96.400	1511.127	1005.808	272.584	5094.603	401.375	137.361	105.188	127.248
375.213	96.400	1511.420	1008.801	270.979	5034.385	404.419	137.552	105.762	125.923
376.169	96.400	1512.388	1003.618	271.832	5052.751	401.413	137.437	104.539	124.828
377.128	96.400	1517.419	1013.246	269.565	5031.048	400.992	136.189	105.176	124.599
378.088	96.400	1506.873	1017.691	273.806	5086.121	396.879	137.424	105.252	126.522
379.046	96.400	1497.843	1007.502	273.794	5073.906	399.388	136.826	105.672	125.350
380.004	96.400	1496.353	1014.558	274.418	5082.109	400.458	138.431	105.380	125.414
380.965	96.400	1504.568	1011.692	274.749	5106.423	402.534	135.055	105.723	127.197
381.923	96.400	1511.483	1009.387	275.666	5087.178	400.177	136.036	105.991	125.567
382.881	96.400	1494.238	1009.502	271.526	5091.610	396.968	136.278	104.896	125.834
383.837	96.400	1508.287	1004.153	271.743	5109.212	404.559	138.329	104.654	124.764
384.794	96.400	1527.035	1013.603	270.584	5088.604	399.528	138.762	105.481	125.261
385.754	96.400	1527.442	1014.482	270.839	5099.940	402.725	138.316	106.373	126.751
386.714	96.400	1516.311	1012.711	269.221	5098.475	401.706	137.361	105.953	125.732
387.670	96.400	1517.915	1012.762	269.743	5077.855	402.928	139.564	105.430	125.847
388.628	96.400	1506.529	1018.214	270.482	5073.130	403.654	135.514	104.921	125.401
389.590	96.400	1501.218	1012.215	273.985	5069.118	397.503	137.934	106.144	125.694
390.544	96.400	1496.964	1015.195	274.469	5058.024	397.477	138.787	105.341	125.834
391.495	96.400	1518.145	1019.716	273.755	5075.027	403.807	137.947	105.290	126.229
392.466	96.400	1507.790	1013.463	273.182	5099.481	401.769	138.392	105.762	126.178
393.424	96.400	1503.803	1012.444	274.099	5122.203	398.483	136.253	104.475	125.439
394.384	96.400	1502.963	1014.074	274.188	5113.147	401.043	135.820	105.367	125.108
395.343	96.400	1497.983	1023.359	275.029	5086.325	401.922	138.838	105.214	126.879
396.302	96.400	1523.456	1027.664	273.208	5121.503	403.196	136.775	105.048	125.962
397.262	96.400	1519.469	1019.322	270.788	5116.395	405.909	136.711	106.042	124.726
398.218	96.400	1522.997	1022.340	272.902	5093.024	398.509	138.431	105.176	125.669
399.180	96.400	1514.795	1017.322	270.826	5092.553	403.132	136.928	104.679	126.038
400.139	96.400	1529.977	1026.505	271.323	5074.722	405.196	136.889	105.430	126.013
401.097	96.400	1513.789	1027.931	271.157	5067.016	403.081	137.208	105.813	124.624
402.061	96.400	1518.769	1023.843	274.902	5075.027	398.980	137.756	105.112	125.949
403.020	96.400	1506.733	1016.494	273.208	5075.435	401.642	140.494	105.876	126.395
403.977	96.400	1515.215	1024.212	273.475	5080.491	400.470	136.839	105.685	125.923
404.937	96.400	1501.740	1024.645	274.685	5106.958	399.642	137.246	104.959	125.529
405.896	96.400	1490.647	1034.707	272.074	5129.208	401.082	137.042	105.112	126.051
406.855	96.400	1508.720	1025.231	274.163	5119.032	399.528	138.290	105.851	124.688
407.816	96.400	1519.240	1035.650	270.992	5109.594	403.973	137.042	105.672	125.325
408.775	96.400	1508.834	1024.696	273.997	5122.776	402.546	137.475	105.023	126.700
409.733	96.400	1524.487	1038.706	279.003	5071.436	405.450	137.959	105.914	126.153
410.694	96.400	1526.996	1032.020	269.514	5101.532	400.700	137.908	104.526	125.439
411.653	96.400	1509.649	1036.401	273.781	5087.726	401.387	137.475	104.373	125.898
412.614	96.400	1519.278	1039.687	273.653	5059.603	405.667	138.087	105.813	125.860
413.568	96.400	1520.565	1035.102	274.838	5071.041	404.036	136.253	104.921	125.911
414.526	96.400	1509.598	1038.999	276.545	5085.790	394.777	138.647	105.227	125.210
415.481	96.400	1505.930	1040.400	275.042	5085.038	404.788	137.259	106.424	126.560
416.440	96.400	1510.758	1038.350	272.584	5101.659	400.356	138.991	105.545	124.688
417.397	96.400	1505.714	1023.869	276.939	5114.001	403.642	137.042	105.558	126.930
418.357	96.400	1506.898	1044.565	271.119	5072.786	399.897	137.373	104.972	125.771
419.316	96.400	1519.393	1042.158	272.775	5099.265	401.031	137.883	103.953	124.446
420.292	96.400	1526.130	1044.132	273.195	5085.981	405.501	135.947	104.845	126.242
421.250	96.400	1509.331	1042.757	273.704	5129.616	402.979	137.819	105.863	126.280
422.211	96.400	1524.857	1044.756	275.488	5104.143	404.673	137.526	105.112	125.669
423.169	96.400	1519.979	1038.414	270.737	5074.543	401.413	138.673	105.150	124.395
424.124	96.400	1516.833	1049.074	274.991	5072.926	404.597	138.456	104.806	125.745
425.083	96.400	1521.762	1046.387	274.061	5072.569	404.559	138.431	104.692	124.064
426.042	96.400	1500.823	1044.744	273.055	5058.266	400.661	138.596	105.609	125.911
427.005	96.400	1510.477	1036.949	272.889	5073.588	401.426	139.781	105.634	125.108
427.959	96.400	1500.963	1048.042	275.908	5112.727	406.507	138.494	105.825	126.535
428.921	96.400	1514.859	1047.049	276.634	5089.458	403.311	136.202	105.138	124.968
429.881	96.400	1510.082	1058.155	278.264	5110.396	402.062	135.667	105.991	125.452
430.840	96.400	1509.471	1045.864	275.144	5113.491	398.292	138.150	105.150	125.872
431.799	96.400	1514.477	1054.130	275.156	5118.000	402.279	139.539	105.991	124.917
432.757	96.400	1520.832	1052.717	274.354	5085.497	412.825	136.635	105.558	125.032
433.714	96.400	1530.907	1057.811	274.316	5100.131	402.368	136.240	104.806	124.752
434.674	96.400	1524.526	1056.983	270.495	5074.072	406.991	138.724	105.303	126.305
435.631	96.400	1524.207	1054.003	275.691	5082.376	405.998	138.838	105.978	124.382
436.592	96.400	1532.944	1058.652	276.277	5118.522	403.119	137.845	105.214	124.650
437.546	96.400	1530.945	1072.038	277.207	5151.803	404.928	138.978	106.246	125.083
438.504	96.400	1516.247	1079.068	277.181	5189.184	405.323	138.074	106.653	124.370
439.453	96.400	1531.925	1074.063	276.787	5203.080	404.622	137.615	105.978	127.261
440.408	96.400	1522.259	1083.806	276.392	5440.512	414.442	139.870	105.354	126.930
441.365	96.400	1565.320	1129.530	284.581	6572.948	436.871	141.678	105.176	129.795
442.325	96.400	1659.443	1265.568	300.171	9236.662	521.632	145.869	106.959	136.991
443.285	96.400	1812.650	1713.191	320.689	14765.529	652.244	153.816	107.710	148.416
444.233	96.400	1990.858	2449.510	350.110	15944.733	679.895	157.866	108.360	163.903
445.189	96.400	2047.013	2874.029	387.619	16000.277	701.101	162.821	109.532	178.092
446.148	96.400	2084.152	3041.717	413.028	15496.589	702.821	165.916	110.665	190.090
447.106	96.400	2098.978	3201.738	433.916	15587.489	712.310	169.266	110.729	201.565
448.063	96.400	2136.779	3313.424	454.002	15633.314	720.321	170.246	111.964	212.557
449.023	96.400	2152.471	3407.648	480.659	15706.052	729.580	172.029	112.627	223.930
449.983	96.400	2141.416	3468.337	498.057	15805.524	749.678	173.863	112.805	233.483
450.933	96.400	2198.233	3545.520	515.824	15863.959	758.798	175.366	112.830	243.315
451.887	96.400	2196.730	3592.568	543.959	15886.324	760.428	180.232	114.422	256.880
452.840	96.400	2216.064	3637.617	563.803	16062.240	775.762	180.486	115.085	267.935
453.797	96.400	2225.922	3694.180	576.297	16022.477	789.531	186.485	115.632	279.563
454.757	96.400	2262.730	3753.341	596.217	16113.440	798.943	189.096	115.900	291.115
455.717	96.400	2268.971	3782.520	612.176	16241.161	811.463	191.835	116.766	299.190
456.673	96.400	2215.503	3417.901	620.200	9131.141	654.868	186.396	114.575	271.794
457.631	96.400	2022.457	2568.087	589.454	6650.743	595.529	178.219	113.569	254.944
458.589	96.400	1913.981	2191.075	558.682	6165.484	572.489	174.233	113.276	239.724
459.548	96.400	1873.211	1976.873	546.850	6040.068	563.293	173.647	111.786	229.445
460.509	96.400	1830.137	1835.652	527.924	5955.740	550.225	171.520	111.760	222.147
461.468	96.400	1792.692	1743.503	516.436	5879.168	547.131	169.036	111.977	216.365
462.429	96.400	1751.464	1677.796	503.750	5841.048	537.769	167.966	111.327	209.513
463.390	96.400	1743.019	1618.419	493.994	5788.167	533.821	162.630	110.856	205.794
464.347	96.400	1723.660	1565.410	481.028	5764.349	530.216	162.732	110.270	200.495
465.305	96.400	1723.991	1529.964	473.501	5724.344	528.319	164.706	111.098	199.476
466.265	96.400	1702.594	1513.903	466.802	5682.505	525.517	159.981	109.748	194.140
467.227	96.400	1697.907	1481.464	459.669	5644.601	522.715	161.585	109.646	190.816
468.184	96.400	1701.486	1443.904	449.200	5643.340	519.849	160.541	109.633	190.803
469.144	96.400	1675.707	1456.335	445.112	5780.932	523.861	160.961	110.321	190.994
470.100	96.400	1736.880	1499.677	447.761	7013.680	553.639	161.662	109.939	192.471
471.060	96.400	1782.744	1608.280	447.990	7981.001	581.710	164.986	111.582	199.846
472.013	96.400	1872.243	1827.513	465.121	9720.813	616.990	168.871	111.251	207.488
472.972	96.400	1904.683	2020.585	475.666	9841.605	624.823	169.584	112.104	213.856
473.927	96.400	1915.828	2112.822	482.684	10262.787	640.501	172.717	112.869	223.446
474.888	96.400	1986.082	2364.584	500.273	12220.188	688.390	175.150	113.238	236.297
475.847	96.400	2018.522	2487.643	515.837	9891.647	639.674	175.188	113.544	234.463
476.804	96.400	2020.840	2293.349	519.760	9470.172	640.501	175.035	112.576	236.017
477.767	96.400	1951.528	2249.306	520.715	9459.932	643.278	174.564	111.939	239.660
478.725	96.400	1962.226	2223.031	524.192	9467.485	638.757	174.933	113.620	242.271
479.682	96.400	1953.604	2223.349	529.236	9489.748	647.557	179.671	113.824	240.233
480.642	96.400	1960.736	2216.000	526.790	9488.283	646.526	180.486	112.919	242.627
481.598	96.400	1965.971	2230.762	535.910	9416.806	653.047	180.181	113.875	244.092
482.555	96.400	1978.147	2238.671	542.775	9387.946	645.813	179.340	112.843	244.653
483.501	96.400	1947.732	2227.718	546.596	9390.684	651.620	180.983	113.798	247.888
484.457	96.400	1973.957	2243.829	548.290	9441.642	658.523	181.594	114.066	252.027
485.417	96.400	1973.536	2241.549	554.327	9527.817	658.205	181.811	114.040	252.842
486.376	96.400	1965.385	2253.687	556.708	9593.346	666.204	178.194	113.989	256.205
487.338	96.400	1960.660	2246.084	565.407	9596.607	662.319	181.174	115.199	256.332
488.298	96.400	1976.848	2270.525	561.994	9621.889	664.191	185.021	114.817	257.071
489.255	96.400	1990.845	2276.358	566.515	9650.546	666.560	185.645	115.429	262.853
490.216	96.400	1986.528	2245.702	569.572	9626.856	672.737	182.843	115.492	264.305
491.171	96.400	2007.657	2271.391	568.872	9646.814	682.812	184.893	115.734	264.534
492.127	96.400	2005.085	2287.655	579.239	9606.541	688.671	184.919	115.250	266.215
493.084	96.400	2000.232	2285.618	575.584	9591.576	684.328	187.377	116.014	267.578
494.042	96.400	2020.585	2292.011	581.583	9597.613	680.519	185.530	116.256	272.202
495.000	96.400	1995.290	2296.749	593.300	9657.411	680.558	185.301	116.486	274.507
495.960	96.400	2017.070	2296.163	597.147	9673.688	686.697	189.975	115.823	272.431
496.917	96.400	2006.065	2297.704	602.712	9618.157	688.582	187.619	116.537	274.265
497.880	96.500	1998.194	2292.266	604.687	9716.890	690.887	185.696	116.167	278.684
498.836	96.500	1997.939	2305.410	605.527	9774.497	686.225	188.103	116.282	278.977
499.794	96.500	2012.497	2299.857	609.998	9753.163	698.223	188.332	116.269	281.588
500.756	96.400	2026.202	2313.663	608.635	9778.343	699.764	187.772	116.460	282.862
501.717	96.500	2035.002	2311.511	611.539	9813.840	706.514	190.917	116.498	283.945
502.677	96.400	2035.779	2305.372	607.399	9786.826	707.291	189.083	116.065	286.505
503.653	96.400	2022.648	2322.579	620.696	9863.843	711.864	191.962	117.326	289.510
504.615	96.500	2035.270	2325.648	612.507	9816.285	713.876	194.369	116.957	290.224
505.576	96.500	2052.579	2328.756	617.729	9833.046	711.991	193.707	117.619	292.261
506.550	96.500	2053.509	2331.838	619.665	9862.187	719.149	193.388	116.167	291.434
507.512	96.400	2036.505	2337.124	632.032	9903.568	717.722	193.388	116.868	294.872
508.470	96.400	2045.981	2335.060	639.049	9971.199	715.162	191.835	117.747	295.356
509.431	96.400	2031.296	2310.008	639.686	9951.024	720.333	194.063	118.167	298.910
510.390	96.400	2035.716	2332.641	646.602	10061.271	724.295	194.904	117.199	299.114
511.341	96.400	2040.925	2335.468	650.665	10125.552	731.924	194.433	118.562	304.476
512.297	96.500	2066.996	2342.728	652.015	10189.781	735.592	196.369	117.759	305.800
513.256	96.500	2053.521	2335.608	653.009	10161.443	742.915	195.745	118.383	306.386
514.209	96.500	2075.339	2341.136	645.545	10244.625	745.692	194.879	118.090	306.259
515.166	96.400	2081.172	2331.571	651.773	10291.991	742.941	197.948	119.288	312.449
516.126	96.500	2063.035	2341.225	659.670	10207.396	748.405	198.063	119.351	311.595
517.109	96.500	2079.160	2342.371	659.097	10276.135	753.448	200.623	118.842	312.945
518.069	96.500	2072.486	2345.746	662.421	10277.663	747.488	198.725	119.109	314.130
519.027	96.500	2083.095	2344.014	666.127	10250.776	747.602	201.119	120.256	318.944
519.980	96.400	2075.746	2335.634	677.794	10362.946	754.340	200.381	119.364	321.912
520.937	96.500	2069.709	2371.334	674.240	11369.470	779.660	201.349	119.148	324.727
521.893	96.500	2095.526	2446.135	684.595	11294.719	780.373	202.852	120.714	331.515
522.850	96.500	2101.245	2451.994	687.754	11251.428	778.119	200.024	119.491	329.910
523.809	96.400	2111.307	2465.698	703.203	11326.815	778.081	203.730	121.618	334.432
524.768	96.400	2122.425	2464.577	698.414	11299.470	794.829	203.068	120.727	337.922
525.727	96.400	2126.043	2483.325	707.533	11376.182	801.758	208.150	121.198	340.049
526.684	96.400	2138.524	2476.078	704.719	11385.645	806.164	203.998	120.689	343.908
527.642	96.400	2140.002	2490.967	717.748	11451.480	808.826	211.245	119.313	347.028
528.602	96.500	2155.222	2507.003	713.787	11456.561	822.913	208.812	119.708	350.900
529.552	96.500	2141.645	2507.499	726.867	11474.354	810.355	208.825	119.772	353.052
530.509	96.500	2153.999	2483.835	740.062	11511.698	813.399	213.244	121.924	355.651
531.467	96.500	2145.313	2520.032	740.457	11510.398	819.716	212.633	121.593	360.592
532.427	96.500	2163.259	2495.387	743.374	11501.254	810.597	208.341	120.842	360.019
533.385	96.500	2150.840	2520.707	752.060	11511.608	817.767	212.990	122.115	364.044
534.344	96.500	2147.351	2506.837	753.499	11663.159	831.981	210.430	121.045	366.489
535.296	96.500	2147.262	2515.307	756.658	11591.428	833.433	212.366	120.701	373.036
536.252	96.500	2162.227	2513.307	762.211	11697.662	840.069	213.843	120.523	373.074
537.210	96.500	2193.902	2517.994	765.331	11698.656	846.539	212.162	122.969	372.488
538.173	96.500	2176.199	2530.578	760.708	11751.257	845.622	213.728	123.236	372.093
539.132	96.500	2173.524	2533.940	777.151	11745.360	849.290	215.015	123.644	382.321
540.092	96.500	2182.070	2537.710	780.399	11746.660	849.137	219.078	123.402	378.627
541.052	96.500	2195.775	2542.130	783.468	11747.411	852.487	220.976	124.357	381.659
542.011	96.500	2185.789	2534.551	782.424	11775.890	854.601	218.963	122.612	383.403
542.969	96.500	2192.221	2511.613	799.974	11862.561	852.449	220.976	123.058	386.014
543.940	96.500	2184.044	2553.491	804.725	11875.298	856.371	221.358	123.835	393.019
544.930	96.500	2191.865	2555.554	808.291	11910.145	859.734	222.338	123.733	397.566
545.894	96.500	2183.535	2545.467	819.729	11913.036	862.829	223.281	124.459	394.535
546.852	96.500	2196.220	2536.844	818.646	11941.247	870.764	223.663	124.166	397.222
547.807	96.600	2196.488	2548.294	820.353	12004.751	869.808	223.064	124.000	401.133
548.765	96.500	2190.094	2541.977	812.953	12043.177	875.311	223.523	124.815	409.118
549.726	96.500	2226.584	2536.819	816.506	11996.854	881.500	221.982	125.771	407.756
550.684	96.500	2209.734	2538.576	826.568	12066.268	888.811	221.956	123.682	407.641
551.642	96.500	2229.195	2538.500	828.797	12041.368	890.008	225.459	123.733	405.132
552.602	96.500	2221.974	2545.339	832.669	12028.823	887.831	227.726	125.580	409.539
553.563	96.500	2224.610	2549.631	845.800	11990.244	894.339	228.426	124.624	414.098
554.522	96.500	2223.298	2569.246	840.922	12035.395	903.955	230.592	125.172	410.787
555.483	96.500	2228.660	2554.306	853.722	12104.516	891.371	228.070	125.121	414.149
556.441	96.500	2228.673	2554.038	850.513	12119.774	904.681	229.165	125.045	413.525
557.402	96.500	2230.609	2549.861	858.728	12221.589	900.376	226.936	126.853	423.880
558.357	96.500	2222.177	2550.103	870.012	12130.281	905.980	228.898	124.803	423.332
559.317	96.500	2227.883	2540.499	877.005	12196.269	900.783	224.886	126.917	425.854
560.272	96.500	2223.184	2571.194	875.145	12225.397	910.183	228.261	126.471	431.878
561.233	96.500	2244.097	2544.550	869.032	12220.252	913.800	231.445	126.318	431.318
562.186	96.500	2248.784	2553.210	870.191	12285.144	916.513	231.076	124.573	434.426
563.140	96.500	2260.272	2572.264	864.255	12319.227	931.835	232.260	126.700	433.190
564.098	96.500	2254.961	2575.894	883.882	12273.452	926.002	229.802	126.751	432.770
565.060	96.500	2260.590	2552.714	878.406	12271.847	937.375	232.846	128.089	436.629
566.016	96.500	2257.967	2569.437	893.422	12296.467	938.662	231.228	127.694	439.329
566.975	96.500	2254.120	2563.425	908.298	12324.716	928.281	235.266	127.452	445.774
567.932	96.500	2251.255	2575.041	906.999	12401.377	934.994	233.253	127.401	444.373
568.891	96.500	2251.930	2569.755	921.557	12373.420	937.999	236.705	126.318	444.105
569.850	96.500	2264.068	2583.689	911.227	12546.177	938.700	236.527	127.643	447.239
570.810	96.600	2252.656	2564.253	919.875	12517.546	957.664	233.814	128.560	446.322
571.756	96.600	2248.478	2580.441	916.437	12589.583	953.258	236.985	127.808	448.474
572.714	96.600	2282.867	2567.106	913.456	12653.265	955.474	235.368	126.777	460.115
573.673	96.600	2268.551	2584.109	919.200	12629.945	965.727	237.953	128.420	455.912
574.631	96.600	2295.285	2585.676	927.950	12730.436	961.294	242.093	127.910	460.968
575.593	96.600	2286.254	2601.915	927.033	12671.899	967.191	244.500	129.757	458.816
576.552	96.500	2296.495	2581.625	928.625	12637.460	973.381	242.615	128.445	462.115
577.510	96.600	2297.182	2598.259	934.790	12668.651	970.235	244.360	129.923	460.013
578.469	96.600	2278.141	2613.135	947.883	12761.614	977.368	241.634	128.573	463.809
579.428	96.600	2273.556	2610.843	952.073	12722.603	973.598	242.449	128.585	467.859
580.390	96.600	2281.071	2607.926	961.511	12736.702	978.731	243.468	130.343	467.349
581.347	96.600	2289.209	2624.191	962.899	12815.018	972.846	243.366	130.139	469.425
582.308	96.600	2289.706	2625.133	971.012	12818.585	984.984	242.882	129.693	469.387
583.262	96.600	2296.214	2625.808	967.459	12765.091	987.200	246.627	129.299	477.297
584.218	96.600	2318.401	2634.635	962.568	12820.520	995.288	243.863	129.630	472.342
585.176	96.600	2308.390	2643.206	965.179	12890.418	991.352	246.958	128.776	484.747
586.136	96.600	2337.328	2633.679	965.268	12858.857	993.670	245.824	129.018	486.276
587.095	96.600	2328.527	2644.887	978.540	12856.870	1004.598	248.817	131.184	483.270
588.059	96.600	2333.825	2669.532	977.864	12835.180	1001.159	249.709	130.101	484.403
589.018	96.600	2341.849	2662.400	984.118	12788.527	1010.839	248.754	129.757	487.613
589.976	96.600	2322.604	2673.990	996.116	12797.009	998.956	251.339	130.700	489.969
590.933	96.600	2319.242	2677.798	999.809	12834.480	1013.845	253.606	130.649	489.816
591.894	96.600	2316.580	2695.184	1006.012	12832.786	1009.247	253.071	130.203	491.192
592.857	96.600	2321.840	2692.891	1014.482	12854.145	1012.571	249.289	132.852	494.822
593.816	96.600	2321.216	2694.700	1012.584	12938.868	1015.896	252.931	132.406	494.083
594.773	96.600	2300.443	2706.201	1015.195	12908.657	1011.514	250.830	131.769	501.165
595.736	96.500	2327.712	2697.998	1013.335	12906.224	1021.410	252.791	132.737	498.923
596.692	96.500	2337.149	2716.581	1016.329	12986.846	1030.530	252.919	131.094	503.534
597.650	96.500	2342.244	2726.503	1015.220	12980.121	1030.708	255.733	130.101	503.075
598.610	96.500	2372.340	2749.696	1023.232	12886.763	1046.017	255.784	131.795	507.788
599.563	96.500	2368.863	2740.818	1014.100	12832.213	1042.527	258.281	132.483	506.527
600.519	96.500	2357.095	2742.028	1028.135	12944.026	1046.832	255.135	131.133	510.628
601.475	96.500	2352.917	2744.983	1047.940	12993.214	1035.051	258.599	134.037	509.558
602.435	96.500	2350.217	2753.083	1046.336	12404.140	1007.056	255.975	132.139	498.783
603.396	96.500	2295.845	2607.850	1048.857	10365.952	978.489	255.912	131.922	484.824
604.355	96.500	2247.816	2483.325	1035.535	9099.987	946.889	250.855	128.394	468.381
605.316	96.500	2222.598	2373.639	1036.541	8993.778	940.458	246.461	129.884	454.295
606.278	96.500	2207.034	2325.750	1010.024	8915.512	941.680	244.347	128.534	443.176
607.237	96.500	2208.715	2271.327	988.627	8899.006	929.988	243.188	128.878	437.215
608.196	96.500	2188.833	2255.509	975.852	8846.494	929.733	242.042	129.337	432.375
609.154	96.500	2175.256	2241.791	966.555	8837.311	928.918	242.717	127.299	423.269
610.115	96.500	2193.520	2220.840	952.048	8801.572	924.626	241.634	127.719	418.467
611.077	96.500	2195.393	2202.856	939.362	8739.049	921.824	242.704	128.076	410.010
612.036	96.600	2182.783	2197.227	927.454	8719.651	912.654	237.584	126.140	408.851
613.000	96.600	2176.581	2197.074	921.238	8741.023	909.661	240.462	126.815	405.692
613.987	96.600	2178.109	2176.135	918.500	8778.685	902.745	237.826	126.891	396.395
614.970	96.500	2161.985	2175.677	910.259	8737.189	898.147	236.348	128.089	391.287
615.928	96.600	2153.834	2170.837	911.036	8713.219	894.492	237.240	127.885	390.549
616.889	96.500	2132.602	2151.592	901.701	8700.407	883.169	235.457	126.497	381.455
617.844	96.500	2144.230	2145.708	888.442	8721.727	887.843	236.629	126.726	381.009
618.801	96.500	2135.875	2152.917	873.298	8721.333	883.271	234.833	127.031	375.188
619.758	96.500	2155.515	2139.110	864.739	8701.922	887.971	233.610	124.713	372.985
620.729	96.500	2136.996	2131.163	855.938	8656.466	891.702	228.528	125.834	371.011
621.685	96.500	2158.075	2123.852	847.532	8680.232	885.092	232.884	124.955	370.807
622.646	96.500	2155.400	2125.699	853.417	8709.067	885.704	229.050	125.083	368.986
623.612	96.500	2154.585	2156.304	843.380	8680.767	879.348	230.617	124.357	362.834
624.573	96.600	2149.121	2123.725	838.490	8634.190	881.908	233.037	125.185	361.853
625.535	96.600	2157.463	2147.211	830.173	8635.705	874.737	230.655	124.535	358.644
626.492	96.600	2153.031	2134.423	824.951	8576.685	873.489	228.859	125.172	354.797
627.451	96.600	2129.163	2124.387	826.326	8572.074	865.465	231.254	126.395	351.702
628.410	96.600	2137.200	2121.457	822.085	8611.532	860.753	229.229	125.338	349.805
629.369	96.600	2118.019	2122.960	823.652	8616.805	860.664	226.860	126.356	343.984
630.326	96.600	2118.171	2126.527	820.824	8583.524	854.869	226.045	124.420	343.768
631.284	96.600	2132.793	2135.429	817.118	8605.176	858.702	228.783	126.369	337.654
632.233	96.600	2117.879	2129.787	802.802	8654.657	855.174	228.006	124.331	343.780
633.188	96.600	2143.301	2119.802	793.950	8643.984	866.421	225.828	124.510	342.978
634.150	96.600	2151.503	2131.787	783.837	8667.661	868.446	225.153	124.370	339.756
635.109	96.600	2133.506	2135.646	790.308	8640.125	858.065	224.962	124.471	337.336
636.067	96.600	2142.524	2143.008	789.964	8622.077	857.238	226.822	123.771	332.674
637.029	96.600	2143.593	2139.327	782.793	8632.228	856.410	224.580	124.306	338.176
637.989	96.600	2131.799	2132.525	784.602	8636.813	854.486	227.586	124.217	336.495
638.951	96.600	2135.162	2132.449	788.665	8620.638	853.264	228.363	125.974	336.992
639.911	96.600	2131.086	2128.705	784.818	8666.999	849.952	227.879	125.146	332.852
640.868	96.600	2132.309	2148.051	778.959	8674.411	840.846	223.243	124.000	336.062
641.828	96.600	2124.081	2143.275	773.088	8679.111	850.640	224.656	124.752	333.349
642.785	96.600	2126.807	2137.569	770.133	8730.299	846.654	222.453	125.439	327.923
643.745	96.600	2133.646	2132.398	766.936	8703.871	847.774	222.478	126.305	329.350
644.705	96.600	2136.525	2137.569	762.631	8692.803	850.958	225.790	125.478	327.567
645.666	96.600	2159.501	2135.544	759.816	8697.936	851.583	225.268	125.172	324.701
646.624	96.600	2147.172	2148.713	760.797	8689.237	851.761	226.108	123.898	322.116
647.616	96.600	2153.095	2141.033	757.269	8638.788	850.844	222.568	122.841	323.542
648.602	96.600	2131.672	2152.993	750.965	8681.977	838.451	223.459	124.904	326.586
649.615	96.600	2140.613	2144.319	751.958	8667.789	844.208	223.472	124.306	322.001
650.573	96.600	2123.266	2163.590	744.991	8624.052	843.495	220.237	123.911	318.868
651.531	96.600	2132.844	2149.554	740.139	8596.961	830.466	221.574	124.586	318.078
652.494	96.600	2131.787	2143.211	743.705	8593.802	836.146	224.045	124.994	317.110
653.454	96.600	2128.513	2154.114	749.143	8635.476	828.364	219.931	124.522	315.989
654.409	96.600	2123.381	2148.472	737.426	8637.450	835.344	219.371	124.319	316.741
655.368	96.600	2124.680	2160.890	742.113	8634.903	820.493	220.250	124.433	314.550
656.329	96.600	2128.170	2153.961	746.940	8646.328	830.007	219.116	125.338	313.162
657.287	96.600	2112.644	2147.325	742.317	8625.274	833.344	219.052	125.236	312.742
658.247	96.600	2112.771	2143.810	731.134	8680.805	829.994	221.179	125.388	310.143
659.208	96.600	2121.216	2158.775	729.529	8640.023	830.389	218.008	124.573	310.436
660.169	96.600	2144.396	2159.781	723.632	8619.568	832.007	217.460	123.567	307.787
661.127	96.600	2140.473	2148.726	724.231	8626.573	838.298	219.243	125.172	312.716
662.086	96.600	2146.141	2149.694	725.594	8612.678	826.938	220.593	124.522	304.552
663.045	96.600	2146.612	2166.137	726.027	8582.340	823.524	221.829	124.471	307.176
664.006	96.600	2130.488	2166.761	727.504	8561.834	825.078	222.173	123.338	310.844
664.967	96.600	2117.153	2178.096	722.320	8556.255	816.927	218.938	125.236	304.043
665.927	96.600	2115.701	2174.416	725.428	8580.684	818.773	219.218	122.969	309.010
666.886	96.600	2113.714	2174.186	722.359	8573.220	820.799	218.403	123.032	303.177
667.841	96.600	2126.361	2177.905	718.640	8603.202	827.180	220.874	123.707	304.437
668.801	96.600	2120.948	2165.105	718.066	8616.754	816.405	220.364	123.007	299.903
669.762	96.600	2074.333	2122.540	720.372	7850.096	807.209	215.868	124.586	297.101
670.722	96.600	2141.721	2207.556	724.880	10571.034	881.373	223.485	125.452	319.887
671.683	96.600	2241.142	2364.991	723.772	12391.544	915.570	226.809	126.114	327.911
672.635	96.600	2290.012	2476.613	730.000	11831.153	897.115	224.733	127.910	329.248
673.592	96.600	2234.264	2423.490	735.872	10136.467	868.904	226.045	126.586	333.451
674.543	96.600	2213.618	2405.773	742.826	10070.912	870.433	224.580	127.108	330.675
675.499	96.600	2230.571	2388.070	749.360	10060.621	870.840	227.649	126.102	331.757
676.455	96.600	2215.911	2384.860	753.792	10061.691	872.496	223.332	125.618	332.076
677.416	96.600	2203.034	2394.056	756.225	10043.389	865.949	227.064	126.293	330.178
678.373	96.600	2203.493	2393.508	765.612	10056.838	867.643	227.471	127.095	335.196
679.334	96.600	2191.062	2404.512	764.058	10116.088	866.204	223.981	126.025	330.382
680.291	96.600	2226.661	2399.163	759.473	10066.098	875.731	223.905	127.324	337.680
681.243	96.600	2206.817	2402.436	765.217	10074.236	874.266	227.891	126.624	337.769
682.201	96.600	2235.411	2425.833	758.212	10088.297	879.985	223.383	126.713	335.094
683.162	96.600	2237.410	2406.283	761.600	10092.169	885.449	224.287	125.974	334.979
684.123	96.600	2216.904	2409.747	756.454	10120.826	888.480	226.707	125.949	339.501
685.079	96.600	2245.039	2409.276	766.070	10092.462	882.481	227.815	126.917	341.806
686.038	96.600	2227.387	2428.521	768.172	10095.799	886.863	228.974	126.828	344.341
686.997	96.600	2217.388	2446.785	768.554	10064.659	885.220	230.859	128.967	345.347
687.956	96.600	2243.116	2439.805	770.362	10099.773	885.882	230.884	126.777	344.175
688.917	96.600	2223.833	2431.870	776.781	10098.894	883.487	231.368	127.286	343.067
689.878	96.600	2227.463	2448.211	775.355	10129.372	880.176	229.853	127.324	340.010
690.839	96.600	2224.839	2450.962	782.385	10093.443	876.966	224.911	127.031	347.232
691.805	96.600	2220.662	2448.937	786.996	10031.416	891.167	230.846	127.146	347.448
692.761	96.600	2214.357	2451.510	777.227	10145.599	883.156	230.566	127.745	347.143
693.736	96.600	2225.591	2458.018	782.551	10132.926	897.154	231.368	128.522	349.563
694.689	96.600	2242.174	2491.910	780.972	10139.180	896.428	230.044	127.172	349.703
695.647	96.600	2251.191	2465.354	781.188	10110.446	897.969	232.553	127.095	349.843
696.606	96.600	2247.128	2469.252	775.253	10114.063	889.894	232.489	127.566	349.346
697.563	96.600	2242.352	2465.316	787.416	10141.943	896.835	233.101	126.675	347.907
698.523	96.600	2256.820	2463.571	783.850	10110.688	894.046	231.445	128.012	348.913
699.479	96.600	2242.836	2481.733	781.698	10165.735	888.709	231.126	126.993	352.186
700.441	96.600	2252.248	2479.161	797.606	10127.742	886.009	231.254	128.203	351.231
701.401	96.600	2246.326	2469.341	799.070	10151.075	888.276	231.483	128.496	354.161
702.363	96.600	2237.206	2475.989	789.658	10165.378	896.721	234.094	128.089	350.454
703.321	96.600	2245.332	2471.672	790.078	10270.416	893.855	231.216	128.687	350.136
704.284	96.600	2245.065	2486.484	799.261	10234.053	899.013	231.572	129.158	355.536
705.243	96.600	2254.082	2477.747	797.147	10285.700	897.243	229.458	128.764	355.689
706.201	96.600	2246.186	2477.594	792.218	10263.194	904.324	230.299	129.069	352.963
707.161	96.600	2245.702	2487.732	790.435	10248.254	895.460	232.285	129.044	350.301
708.120	96.600	2253.229	2472.410	799.771	10251.566	903.063	236.781	127.465	359.497
709.076	96.600	2263.927	2494.432	794.944	10221.712	899.739	232.031	128.203	355.651
710.033	96.600	2260.234	2488.560	796.676	10220.706	904.617	237.431	127.757	356.249
710.991	96.600	2281.695	2501.258	795.173	10323.145	898.924	233.368	128.382	353.129
711.947	96.600	2267.506	2489.554	799.580	10308.778	904.706	233.330	128.942	357.956
712.909	96.600	2256.617	2503.933	804.050	10322.190	898.415	234.756	130.228	355.727
713.868	96.600	2262.552	2504.302	810.966	10233.633	901.624	232.744	129.400	356.428
714.830	96.600	2249.433	2504.341	808.317	10334.837	892.594	233.126	128.050	357.141
715.788	96.600	2248.835	2507.245	810.800	10385.808	901.395	232.273	129.910	357.294
716.748	96.600	2264.411	2506.429	804.967	10327.475	909.521	236.514	128.891	359.714
717.708	96.600	2263.673	2513.345	808.037	10421.814	913.100	234.807	129.082	363.127
718.667	96.600	2280.434	2514.530	804.789	10313.058	908.273	233.113	128.025	359.128
719.629	96.600	2278.867	2513.192	806.470	10401.805	914.106	233.546	128.140	359.943
720.587	96.600	2273.722	2528.221	805.553	10433.035	910.756	236.081	128.955	360.452
721.563	96.600	2285.669	2528.540	804.916	10327.730	923.327	236.578	128.331	362.885
722.522	96.600	2289.986	2525.610	802.127	10358.641	904.159	241.519	128.687	361.930
723.504	96.600	2280.841	2513.625	807.043	10359.380	917.506	236.412	128.662	363.165
724.465	96.600	2271.557	2531.800	807.718	10354.120	908.171	238.068	130.674	360.274
725.425	96.600	2271.799	2533.520	814.660	10416.465	913.775	237.762	130.114	362.376
726.382	96.600	2261.329	2528.947	816.634	10431.175	909.024	236.374	128.980	365.267
727.343	96.600	2260.960	2549.237	820.378	10399.907	913.125	232.884	129.490	361.892
728.304	96.600	2264.602	2522.503	817.678	10453.846	911.851	234.170	129.502	363.726
729.261	96.600	2258.018	2541.900	819.257	10433.353	911.813	233.266	130.572	362.643
730.220	96.600	2284.471	2523.038	824.199	10510.180	911.597	235.406	129.668	368.769
731.181	96.600	2286.764	2540.894	810.036	10498.449	918.092	235.342	128.916	367.903
732.143	96.600	2284.038	2552.943	812.736	10540.238	921.799	235.049	128.522	366.770
733.102	96.600	2297.029	2531.584	811.768	10528.456	928.995	234.922	129.120	370.374
734.061	96.600	2284.611	2552.077	821.677	10542.683	923.773	238.475	131.566	369.584
735.022	96.600	2295.132	2564.164	815.475	10558.387	926.613	239.163	130.126	370.081
735.981	96.600	2293.794	2557.999	816.952	10551.675	922.868	236.641	130.305	367.050
736.939	96.600	2286.344	2562.763	826.466	10529.883	919.175	238.743	130.152	369.139
737.900	96.600	2285.248	2565.616	830.109	10527.488	924.231	240.322	130.152	368.158
738.859	96.600	2284.471	2587.752	832.936	10573.709	921.569	236.438	131.133	368.209
739.820	96.600	2284.573	2571.143	830.274	10636.143	924.206	237.698	130.980	367.177
740.781	96.600	2299.016	2561.158	838.935	10632.653	925.874	234.565	128.929	367.687
741.741	96.600	2291.808	2579.881	826.454	10703.111	926.256	236.756	130.903	370.056
742.703	96.600	2294.711	2569.004	824.530	10692.706	934.459	234.629	130.623	370.807
743.660	96.600	2297.259	2572.455	825.880	10677.053	929.224	238.781	129.248	370.934
744.623	96.600	2305.423	2575.881	819.563	10717.300	928.498	240.004	131.935	369.406
745.582	96.600	2307.970	2593.674	825.104	10721.006	934.153	240.093	129.783	373.928
746.541	96.600	2324.349	2569.768	821.983	10715.606	933.045	237.418	128.853	374.819
747.500	96.600	2297.526	2587.904	824.352	10703.009	935.605	240.246	130.610	374.246
748.460	96.600	2302.226	2585.943	836.031	10674.747	924.104	238.233	129.732	376.055
749.419	96.600	2297.412	2603.137	834.681	10710.626	922.321	242.258	131.795	374.233
750.382	96.600	2302.417	2608.181	833.853	10672.862	934.178	240.399	131.706	375.099
751.341	96.600	2308.900	2619.924	840.502	10728.177	924.117	240.297	131.489	378.449
752.304	96.600	2299.309	2616.179	840.247	10724.827	939.566	242.194	131.604	375.252
753.259	96.600	2297.985	2610.142	837.254	10779.212	928.498	238.577	130.458	378.704
754.217	96.600	2302.557	2608.601	833.026	10775.836	935.567	239.927	129.502	373.061
755.219	96.600	2295.527	2611.900	841.113	10792.623	930.192	239.966	131.693	377.952
756.181	96.600	2315.574	2621.223	839.559	10722.509	935.401	241.328	129.388	372.170
757.139	96.600	2315.688	2615.033	837.025	10751.854	943.387	240.768	128.866	372.221
758.104	96.500	2328.985	2612.511	836.961	10794.215	941.808	238.335	130.929	380.092
759.062	96.500	2316.363	2634.227	832.363	10743.830	936.993	245.009	131.680	380.589
760.027	96.500	2334.487	2647.931	832.376	10708.830	947.030	246.168	131.617	373.112
761.004	96.500	2326.043	2632.788	837.789	10682.708	942.024	240.615	130.356	379.532
761.964	96.600	2340.295	2636.048	837.942	10657.782	932.612	241.303	133.578	378.780
762.924	96.600	2306.951	2643.754	849.825	10681.103	936.012	244.665	132.024	381.544
763.887	96.600	2316.453	2626.623	850.704	10712.218	935.847	242.054	132.636	378.525
764.844	96.600	2317.077	2646.670	839.789	10669.360	934.701	245.226	131.247	379.175
765.800	96.600	2313.434	2655.994	848.284	10699.991	941.451	242.793	129.999	377.430
766.757	96.600	2306.722	2647.193	849.507	10726.801	937.490	243.952	131.731	380.410
767.721	96.600	2320.719	2655.828	847.749	10727.400	934.955	238.908	131.158	378.182
768.677	96.600	2332.513	2652.504	852.181	10719.834	944.164	239.749	131.859	377.901
769.637	96.600	2315.497	2658.719	843.317	10699.061	941.362	242.653	131.897	379.621
770.590	96.600	2326.527	2674.232	846.564	10676.059	951.691	245.162	132.521	380.461
771.550	96.600	2343.568	2679.123	836.057	10618.261	953.882	243.914	129.935	382.588
772.510	96.600	2336.220	2664.833	839.343	10610.568	943.973	245.098	130.891	380.487
773.470	96.600	2346.880	2683.339	842.323	10618.490	949.131	244.411	132.394	380.601
774.429	96.600	2310.403	2681.148	851.430	10577.071	942.827	243.914	132.062	376.373
775.388	96.600	2320.617	2673.060	848.946	10568.436	934.624	244.627	132.636	379.137
776.351	96.600	2320.834	2673.315	856.601	10569.353	944.839	244.958	133.272	378.373
777.306	96.600	2310.938	2673.825	863.835	10627.724	948.469	243.506	132.177	377.940
778.263	96.600	2332.055	2703.679	860.778	10644.282	943.858	241.774	132.432	375.023
779.225	96.600	2316.554	2695.413	856.015	10647.568	943.896	242.067	132.521	377.468
780.188	96.600	2340.983	2685.122	851.175	10615.344	952.927	244.283	130.534	381.404
781.149	96.600	2313.893	2687.236	849.991	10599.628	954.404	241.354	131.948	376.628
782.109	96.600	2328.450	2683.339	851.226	10634.334	954.671	240.870	132.343	378.513
783.065	96.600	2332.144	2693.872	849.991	10556.005	952.850	243.888	130.101	376.322
784.027	96.600	2324.820	2695.184	855.085	10554.146	958.874	244.054	131.935	380.907
784.983	96.600	2335.124	2717.523	855.658	10543.116	945.883	245.238	132.368	379.124
785.940	96.600	2328.832	2700.240	860.855	10523.833	944.100	245.799	132.113	376.386
786.900	96.600	2324.018	2742.499	865.593	10513.682	944.380	245.621	133.005	380.869
787.860	96.600	2320.694	2718.721	864.319	10566.538	950.061	242.169	132.470	373.813
788.820	96.600	2323.942	2704.583	867.350	10554.948	946.940	242.360	132.368	374.501
789.779	96.700	2328.565	2723.726	862.154	10543.460	940.725	243.073	132.241	375.736
790.739	96.700	2318.083	2720.058	866.955	10559.686	941.617	241.035	133.476	377.901
791.698	96.700	2327.202	2734.425	866.433	10545.791	946.813	243.111	132.585	380.334
792.658	96.700	2334.895	2738.309	860.473	10599.144	944.291	242.589	132.495	377.608
793.617	96.700	2332.182	2731.419	861.759	10584.293	958.709	243.392	131.031	378.640
794.575	96.700	2345.122	2721.790	851.544	10534.723	952.646	247.085	131.527	381.047
795.535	96.700	2336.156	2733.317	860.192	10535.729	954.353	245.952	132.839	379.621
796.495	96.700	2358.101	2733.686	857.467	10545.421	967.128	249.556	131.960	379.914
797.449	96.800	2359.425	2747.021	855.658	10529.157	949.131	244.270	132.062	379.595
798.407	96.800	2337.328	2740.398	873.426	10560.005	938.139	244.003	133.438	385.505
799.368	96.800	2351.172	2769.590	874.623	10501.404	947.399	245.238	132.419	378.232
800.331	96.800	2324.196	2751.275	868.064	10526.393	957.996	246.792	132.788	385.199
801.289	96.800	2342.066	2763.833	871.439	10584.382	949.322	242.844	132.406	380.003
802.246	96.800	2346.090	2755.198	871.006	10560.781	950.010	246.983	132.113	381.951
803.207	96.800	2342.600	2761.604	870.840	10577.492	958.925	240.984	133.425	379.379
804.169	96.800	2353.707	2765.425	871.184	10592.852	959.040	245.302	132.470	378.869
805.127	96.800	2355.006	2767.692	867.210	10576.664	962.402	244.958	132.597	382.639
806.087	96.800	2349.784	2772.927	872.025	10593.756	956.582	245.952	133.323	384.741
807.050	96.800	2365.220	2782.989	864.790	10541.231	972.082	249.441	133.451	382.856
808.012	96.800	2367.538	2787.765	873.107	10586.624	972.248	250.015	131.171	384.422
808.973	96.800	2368.328	2796.528	870.407	10566.080	962.224	250.448	132.088	385.925
809.936	96.800	2344.791	2777.436	877.310	10555.356	957.996	249.059	133.298	381.608
810.892	96.800	2345.759	2786.236	881.169	10553.471	957.868	249.709	135.017	384.219
811.850	96.800	2351.299	2790.376	873.680	10582.115	954.226	250.639	135.234	382.219
812.804	96.800	2325.686	2801.584	884.927	10566.003	950.787	246.920	133.374	384.435
813.749	96.800	2357.655	2810.321	880.099	10578.893	952.226	244.716	133.145	386.014
814.704	96.800	2367.729	2786.020	881.564	10598.736	956.404	249.225	133.030	382.168
815.662	96.800	2367.857	2781.384	867.032	10586.496	967.612	244.996	134.037	383.747
816.619	96.800	2368.252	2803.431	870.649	10566.819	963.039	246.448	133.183	379.455
817.579	96.800	2385.217	2816.244	874.445	10586.267	969.204	247.595	133.132	380.933
818.535	96.800	2374.327	2802.030	869.745	10523.196	969.739	247.123	131.604	385.963
819.498	96.800	2376.148	2815.530	875.081	10533.016	965.077	245.582	132.228	383.582
820.457	96.800	2382.657	2827.210	884.506	10650.815	962.402	250.422	132.967	385.225
821.415	96.800	2362.215	2829.553	890.238	10638.830	974.477	252.702	132.546	388.549
822.372	96.800	2356.445	2840.659	890.875	10637.187	966.567	251.772	133.221	389.797
823.333	96.800	2354.165	2843.359	887.932	10656.611	970.057	252.562	131.935	385.416
824.292	96.800	2363.246	2836.087	890.034	10737.500	966.440	247.455	132.877	384.601
825.248	96.800	2361.438	2821.720	883.385	10712.307	972.668	248.512	134.037	386.855
826.205	96.800	2377.078	2829.986	888.773	10729.756	974.566	249.811	134.253	390.077
827.163	96.800	2394.960	2815.594	888.162	10782.485	968.325	247.289	133.909	389.313
828.120	96.800	2384.274	2856.058	877.399	10795.807	976.107	248.894	133.489	389.683
829.082	96.800	2389.776	2865.279	883.335	10749.536	977.368	249.913	133.234	390.205
830.045	96.800	2396.998	2865.648	879.195	10739.754	972.566	249.683	133.234	387.097
831.004	96.800	2387.509	2853.345	883.959	10720.866	982.297	251.734	133.043	388.001
831.960	96.800	2379.829	2857.395	884.124	10723.057	977.113	251.823	133.820	393.300
832.919	96.800	2380.886	2861.891	886.722	10750.835	975.292	254.179	133.081	392.497
833.878	96.800	2370.162	2865.623	889.626	10765.635	964.428	251.123	133.922	389.288
834.838	96.800	2353.350	2859.611	898.491	10707.887	961.766	249.836	134.189	390.803
835.796	96.900	2376.327	2870.959	891.473	10766.577	973.177	249.722	132.712	385.148
836.756	96.900	2365.335	2861.827	898.886	10796.826	977.966	248.486	135.476	385.925
837.715	96.900	2388.999	2886.651	894.823	10854.293	978.221	249.034	135.616	388.613
838.676	96.900	2375.524	2869.214	881.628	10840.257	982.883	250.664	132.890	389.797
839.631	96.900	2401.443	2879.200	890.671	10827.215	978.438	247.264	133.247	392.293
840.589	96.900	2399.010	2856.478	886.748	10858.076	981.380	251.199	134.355	391.950
841.547	96.900	2392.846	2882.804	889.193	10758.770	990.728	252.778	133.018	388.231
844.609	96.900	2385.726	2878.703	884.201	10869.093	980.424	253.772	133.578	395.630
845.570	96.900	2392.642	2904.010	885.258	10875.372	982.526	253.364	132.801	395.096
846.530	96.900	2379.689	2899.604	889.728	10829.813	987.098	249.620	133.247	397.910
847.491	96.900	2391.050	2885.657	890.798	10845.021	987.570	256.587	135.094	398.522
848.459	96.900	2398.883	2915.817	894.339	10871.080	980.335	258.204	134.801	398.038
849.420	96.900	2389.751	2887.453	895.549	10924.254	983.494	253.976	137.081	403.412
850.378	96.900	2459.967	3078.589	911.317	20265.319	1243.254	273.157	142.939	522.256
851.338	96.900	3060.974	4294.308	1021.016	26319.361	1296.390	275.551	141.105	502.706
852.298	96.800	2580.403	3388.670	1059.964	8630.229	987.799	265.044	138.099	453.263
853.257	96.900	2411.619	3043.857	1053.290	8138.283	973.381	257.465	137.526	423.319
854.212	96.900	2324.604	2895.133	1015.412	7900.570	965.536	255.529	134.342	403.565
855.171	96.800	2287.872	2801.660	995.937	7760.011	947.832	251.887	132.037	389.084
856.132	96.800	2291.960	2728.260	971.458	7661.342	946.418	247.162	131.540	379.137
857.089	96.800	2257.738	2693.158	949.475	7550.445	930.192	245.786	130.534	367.330
