Fri, Jul 21, 2017	3:37 PM
 Notes: background
 waiting time: 25.000
 time(s)	 temp (K)	 MS1=1.942	 MS2=14.600	 MS3=17.577	 MS4=27.796	 MS5=43.737	 MS6=28.818	 MS7=27.000	 MS8=60.080
0.000	91.300	6744.636	449.416	437.877	1098.071	1264.447	171.953	135.985	146.072
0.746	91.300	6639.624	446.856	449.276	1089.130	1253.392	170.042	133.400	145.563
1.499	91.300	6614.265	446.029	449.964	1076.139	1257.799	167.393	135.310	146.811
2.272	91.300	6536.955	444.296	449.722	1062.536	1241.649	169.202	134.597	146.607
3.075	91.300	6596.205	445.927	449.455	1074.101	1249.813	167.699	133.425	146.951
3.849	91.300	6519.073	451.314	443.889	1061.479	1215.043	171.635	136.036	148.327
4.609	91.300	6535.389	440.323	443.621	1051.647	1232.173	170.386	131.489	144.926
5.365	91.300	6384.105	458.905	434.782	1050.997	1219.195	166.909	134.813	148.416
6.142	91.300	6384.271	435.394	434.120	1036.771	1228.097	161.242	132.572	145.117
6.903	91.300	6420.353	439.342	431.000	1049.532	1207.159	167.750	131.693	147.270
7.660	91.300	6275.094	434.426	431.700	1024.964	1203.440	165.113	135.590	141.538
8.432	91.300	6354.505	434.910	429.879	1032.950	1195.900	162.630	133.196	142.876
9.205	91.300	6239.470	432.108	432.324	1018.990	1180.782	163.241	133.884	143.945
9.981	91.300	6321.021	437.801	423.995	1043.610	1164.339	166.209	131.922	142.659
10.741	91.300	6221.995	431.980	424.937	1004.063	1169.790	165.597	132.534	146.582
11.500	91.300	6464.943	451.900	442.692	1072.700	1252.870	171.927	138.367	150.199
12.261	91.400	6902.058	474.520	483.448	1158.136	1383.126	173.825	138.787	154.364
13.049	91.500	7749.465	514.436	541.488	1314.170	1544.611	181.607	146.671	164.018
13.810	91.600	8452.504	579.099	595.937	1428.951	1766.837	194.700	154.682	171.342
14.582	91.900	9631.416	672.954	637.725	1596.614	2058.323	204.482	160.579	179.366
15.343	92.400	10371.594	866.280	697.306	1701.639	2354.242	209.908	173.723	185.097
16.118	93.200	11232.413	1026.632	739.693	1873.441	2801.877	221.612	179.264	191.172
16.895	94.200	11948.940	1262.333	779.418	2040.810	3103.107	228.095	198.279	198.852
17.656	95.700	12047.660	1352.392	792.460	2063.609	3122.033	234.030	195.592	191.962
18.414	97.600	12426.633	1428.353	825.104	2042.084	2823.580	237.469	201.782	199.718
19.174	99.800	12094.454	1403.338	846.004	2026.253	2620.344	244.614	197.388	201.221
19.933	102.400	12365.409	1394.652	844.590	2016.331	2496.941	235.380	197.846	200.941
20.691	105.200	11990.754	1402.651	844.514	1967.538	2453.650	241.774	189.988	201.056
21.449	107.700	11983.112	1420.953	853.124	1938.142	2400.437	240.475	193.923	209.589
22.208	110.700	11798.293	1392.767	871.209	1905.103	2408.817	240.450	192.981	215.333
22.968	113.800	11987.608	1408.153	870.815	1908.147	2382.758	241.023	199.005	222.211
23.727	116.800	11441.418	1406.089	889.779	1882.496	2375.282	251.594	197.961	239.889
24.477	119.900	11797.185	1425.385	920.614	1928.207	2383.879	262.140	205.080	264.318
25.238	122.900	11491.115	1408.153	943.412	1889.781	2342.893	285.817	199.757	290.389
25.994	125.800	11645.303	1408.611	970.554	1929.914	2347.963	283.359	202.826	305.138
26.789	128.800	11353.243	1364.811	995.581	1889.743	2330.093	295.446	202.075	305.813
27.549	131.700	11452.982	1303.994	1027.919	1928.551	2300.112	288.721	211.971	301.865
28.307	134.600	11104.067	1262.295	1098.071	1858.654	2271.760	292.796	228.057	292.987
29.066	137.400	11141.016	1217.692	1251.316	1874.549	2223.464	284.008	236.794	289.166
29.824	140.200	10986.204	1196.638	1643.446	1843.701	2157.247	291.408	220.109	294.567
30.610	143.000	11100.934	1192.919	2255.381	1833.384	2137.200	293.611	215.155	299.075
31.367	145.700	11017.600	1180.909	3191.867	1851.891	2119.229	310.169	214.353	314.996
32.126	148.400	11008.429	1189.710	4117.858	1846.541	2120.044	317.836	208.430	326.714
32.886	150.700	10861.081	1239.025	4567.378	1869.951	2078.574	341.819	211.105	352.237
33.647	153.400	10668.086	1296.008	4427.799	1820.432	2094.469	378.869	204.558	405.960
34.438	156.300	10759.406	1420.316	3987.984	1881.172	2089.540	424.529	204.214	504.374
35.196	158.500	10454.954	1637.332	3562.383	1914.707	2181.497	528.714	199.566	673.820
35.957	161.100	10588.088	2072.104	3153.454	2022.419	2298.380	677.628	214.034	947.310
36.716	163.600	10468.748	2700.648	2999.941	2130.462	2508.340	907.050	213.920	1373.560
37.477	166.100	10650.841	3676.349	2993.267	2359.871	2803.647	1215.514	233.992	1984.337
38.265	168.600	10571.786	4982.102	3253.906	2622.930	3200.566	1623.259	244.818	2937.011
39.030	171.100	10931.832	6926.665	3843.808	3079.060	3887.812	2213.746	274.902	4226.652
39.787	173.500	10985.211	8780.239	4524.341	3368.980	4158.602	2250.452	261.618	3748.361
40.562	175.900	10738.850	6375.177	3765.364	3101.464	3715.080	1575.611	234.489	2454.528
41.320	178.400	10044.013	4402.606	3043.156	2814.524	3374.418	1220.074	220.504	1951.324
42.092	180.800	10137.600	3633.465	2685.389	2755.249	3372.075	1144.546	212.964	2052.553
42.868	183.200	10182.866	4061.130	2751.988	2888.370	3569.554	1372.134	228.082	2677.862
43.662	185.600	10289.559	4943.116	2954.154	3030.776	3826.881	1526.907	228.452	2879.582
44.422	187.900	10332.009	4653.336	2840.774	2946.104	3606.795	1261.250	218.454	2330.539
45.217	190.600	9862.684	3552.385	2509.359	2728.719	3421.327	1020.786	200.534	1756.138
45.978	192.700	9903.033	2800.794	2265.494	2646.530	3220.588	825.371	205.093	1368.823
46.739	195.000	9706.420	2284.726	2056.183	2489.477	3129.114	692.479	193.949	1099.574
47.499	197.400	9822.641	1944.217	1908.415	2438.799	3079.455	585.926	200.674	911.189
48.259	199.700	9683.355	1691.997	1795.290	2313.014	2991.077	532.687	192.471	786.487
49.045	202.100	9813.827	1534.205	1706.466	2359.667	2966.495	480.124	190.344	687.805
49.829	204.800	9647.718	1440.452	1660.551	2282.739	2909.436	459.835	191.198	644.017
50.588	206.800	9803.561	1343.592	1582.820	2256.770	2881.187	436.285	184.638	596.790
51.349	209.100	9584.749	1288.672	1536.663	2224.292	2827.528	432.808	190.077	583.085
52.128	211.400	9631.059	1239.598	1481.769	2183.790	2832.546	409.462	189.950	547.678
52.889	213.700	9669.880	1206.293	1446.719	2186.464	2772.303	409.297	185.326	526.803
53.690	216.400	9480.514	1161.066	1410.394	2147.440	2721.230	398.649	182.537	489.804
54.455	218.700	9614.756	1142.649	1369.740	2165.793	2657.789	386.346	189.274	483.945
55.213	220.700	9344.158	1102.478	1359.869	2093.768	2675.722	378.105	185.301	469.693
55.975	223.000	9506.637	1086.838	1313.572	2115.293	2637.551	378.551	192.930	467.693
56.736	225.400	9199.204	1084.787	1302.733	2076.842	2640.175	373.864	184.970	458.982
57.497	227.700	9412.158	1072.076	1284.163	2067.786	2596.922	365.853	190.268	441.927
58.256	230.000	9284.780	1030.148	1247.393	2048.172	2565.628	370.056	180.868	438.769
59.017	232.300	9450.583	1035.408	1237.854	2056.145	2576.365	362.376	185.899	428.019
59.804	234.600	9195.205	1019.665	1226.314	2014.917	2523.343	354.212	185.415	421.307
60.580	236.900	9312.826	987.188	1207.413	2010.880	2525.827	347.359	189.224	407.756
61.338	239.300	9098.612	985.379	1182.730	2015.032	2473.073	346.328	187.351	403.069
62.098	241.600	9127.180	976.897	1155.054	1995.838	2465.736	340.138	181.251	395.121
62.857	243.900	9070.018	965.179	1164.530	1972.046	2436.430	335.858	188.905	383.263
63.618	246.200	9139.738	950.061	1142.152	1947.618	2413.683	336.979	180.588	378.411
64.384	248.500	9101.541	943.043	1128.486	1965.754	2388.299	324.523	187.759	379.391
65.183	250.800	8973.068	925.148	1114.692	1929.647	2381.969	328.344	181.034	367.827
65.942	253.100	9132.376	926.473	1105.968	1948.344	2366.125	322.014	184.855	364.082
66.704	255.400	8966.293	908.273	1089.449	1921.890	2341.441	335.973	180.206	359.128
67.464	257.800	9001.522	897.994	1071.732	1915.955	2326.400	319.199	187.695	351.282
68.255	260.100	8853.117	903.203	1049.902	1864.958	2298.150	316.168	178.920	352.543
69.013	262.400	8997.026	891.919	1056.168	1906.339	2312.963	308.424	184.002	338.622
69.772	264.700	8837.744	878.074	1043.152	1843.523	2266.335	314.206	177.060	340.329
70.532	267.000	8913.258	858.244	1031.434	1898.761	2256.400	305.775	183.862	337.081
71.294	269.300	8716.327	863.631	1035.153	1833.665	2230.571	310.806	179.888	326.115
72.058	271.600	8821.403	851.926	1008.648	1850.540	2246.720	305.151	180.397	325.032
72.851	273.900	8703.654	853.251	1009.935	1848.847	2182.223	308.309	180.575	329.248
73.610	276.200	8714.035	833.955	1000.968	1809.758	2206.550	298.413	177.277	317.811
74.374	278.600	8689.682	858.193	993.670	1815.299	2155.005	302.005	175.150	317.696
75.156	280.900	8597.139	849.965	987.302	1777.268	2173.218	297.012	178.512	309.558
75.918	283.200	8753.518	846.577	977.686	1795.532	2144.077	291.497	177.990	310.360
76.711	285.500	8546.487	832.478	968.771	1762.086	2135.009	295.420	173.927	308.666
77.472	287.800	8651.320	830.287	963.077	1775.255	2105.435	298.451	175.328	301.343
78.260	290.100	8532.222	830.351	957.448	1743.185	2102.697	297.407	175.506	302.629
79.019	292.500	8597.713	819.640	946.240	1751.464	2091.170	290.809	177.022	298.337
79.778	294.800	8350.753	810.138	927.619	1731.888	2080.268	292.478	172.182	292.682
80.535	297.100	8490.586	793.122	919.175	1744.943	2057.864	282.747	178.461	291.981
81.312	299.400	8403.775	791.632	913.635	1710.389	2042.135	286.454	176.653	289.523
82.083	301.700	8494.764	806.432	910.565	1716.948	2038.123	288.491	171.609	282.938
82.844	304.000	8372.010	810.495	923.862	1725.010	1998.958	292.975	171.978	282.582
83.604	306.300	8486.001	794.549	904.503	1713.216	2034.493	281.830	170.883	281.868
84.365	308.600	8404.437	814.863	907.890	1712.605	1998.322	291.421	174.437	284.900
85.123	310.600	8278.537	797.236	906.731	1698.480	2003.327	290.160	174.080	273.666
85.885	312.900	8467.521	805.757	911.202	1720.361	1979.573	288.542	178.805	277.665
86.645	315.200	8366.253	790.868	886.939	1692.863	1998.716	276.213	168.540	271.565
87.438	317.500	8495.732	790.448	892.263	1696.098	1954.610	277.092	173.978	275.513
88.201	319.800	8263.037	780.628	886.086	1689.870	1980.822	278.748	171.826	273.411
88.961	322.100	8527.598	806.508	895.192	1700.683	1951.451	274.507	176.513	272.609
89.721	324.400	8312.811	809.336	890.518	1671.581	1959.412	277.742	171.380	269.310
90.494	326.700	8452.211	802.012	876.648	1708.274	1942.752	274.176	173.265	269.412
91.260	329.100	8236.125	769.127	869.006	1673.147	1930.398	273.526	174.780	268.381
92.023	331.400	8380.594	778.182	878.278	1693.105	1908.313	264.445	172.068	269.399
92.782	333.700	8238.494	770.528	878.125	1647.572	1927.265	268.279	173.265	266.012
93.541	336.000	8344.856	774.132	873.795	1672.345	1917.611	266.916	169.571	262.318
94.303	338.300	8149.581	760.313	884.812	1662.372	1897.933	264.547	169.558	259.694
95.059	340.600	8169.806	746.558	883.666	1659.901	1905.320	267.884	172.743	262.293
95.819	342.900	8149.351	761.052	866.675	1641.841	1863.735	265.260	173.176	266.967
96.580	345.200	8223.414	752.327	868.229	1630.098	1881.465	265.362	166.553	258.128
97.338	347.200	7989.509	745.361	861.759	1617.056	1866.525	272.736	175.315	260.420
98.100	349.500	8142.181	734.802	868.153	1616.699	1863.939	262.827	174.921	259.427
98.861	351.800	8095.591	746.749	867.580	1609.580	1854.552	268.215	174.016	261.821
99.618	354.100	8052.121	731.911	866.688	1590.284	1862.271	260.395	171.494	257.147
100.378	356.400	8109.384	729.045	860.116	1624.277	1828.150	265.311	171.902	259.694
101.138	358.800	7955.121	719.022	869.796	1579.343	1832.340	255.771	171.749	257.147
101.897	361.100	8067.762	742.202	862.791	1586.170	1810.688	266.508	173.914	261.184
102.656	363.400	7900.035	715.379	862.345	1575.229	1823.654	263.566	165.636	253.543
103.411	365.700	8012.167	713.812	879.208	1616.521	1790.450	261.197	175.073	260.051
104.167	368.000	7830.571	710.730	870.662	1570.415	1792.526	260.560	166.642	258.128
104.928	370.000	7951.987	702.834	872.687	1581.801	1785.075	258.344	170.616	258.166
105.691	372.300	7818.726	719.073	869.847	1547.910	1793.048	264.789	168.934	262.331
106.452	374.600	7890.814	701.980	872.330	1572.962	1784.871	264.216	174.220	261.439
107.214	376.900	7807.289	710.221	877.896	1556.430	1779.178	263.082	169.266	258.523
108.009	379.200	7959.183	723.912	867.019	1570.937	1777.675	259.834	172.794	261.490
108.791	381.900	7865.571	719.633	866.612	1556.965	1759.959	263.146	168.221	260.331
109.551	383.800	7948.854	713.812	878.762	1562.315	1775.459	259.363	171.380	266.508
110.311	386.200	7811.988	713.137	889.321	1545.795	1750.177	262.445	169.024	264.891
111.073	388.500	7874.677	707.139	885.398	1561.614	1758.010	264.267	170.399	258.943
111.831	390.800	7572.365	712.717	893.358	1553.794	1743.516	262.649	171.711	263.553
112.593	393.100	7886.484	709.673	865.020	1549.425	1766.569	261.019	168.782	261.146
113.357	395.400	7782.452	712.539	882.787	1561.538	1761.169	262.471	169.941	267.094
114.130	397.700	7755.324	708.489	889.384	1542.701	1743.771	259.134	169.915	266.992
114.893	400.000	7812.421	707.864	885.946	1554.023	1736.575	266.215	172.946	265.337
115.653	402.300	7649.433	705.330	896.249	1544.114	1726.258	262.191	168.208	268.164
116.406	404.600	7846.186	715.978	895.612	1563.346	1726.538	266.534	175.239	268.508
117.169	406.900	7612.306	705.190	900.554	1543.210	1730.983	260.586	165.254	266.941
117.927	409.200	7689.986	702.057	903.420	1557.488	1700.454	262.293	176.169	269.298
118.690	411.500	7634.582	706.132	892.785	1532.027	1718.374	262.968	170.463	274.316
119.446	413.500	7596.602	707.431	893.778	1554.456	1700.734	261.426	174.411	274.507
120.205	415.800	7562.125	716.640	904.783	1522.004	1719.317	268.890	168.985	274.443
120.969	418.100	7709.842	728.790	901.713	1555.615	1713.840	265.388	173.978	278.684
121.728	420.400	7629.921	718.627	912.093	1550.228	1721.431	263.171	168.998	279.741
122.489	422.700	7662.361	726.307	908.145	1550.623	1710.261	269.285	173.201	279.678
123.247	425.000	7524.718	729.593	924.983	1547.579	1715.636	275.462	169.877	286.938
124.008	427.300	7717.051	736.713	904.120	1559.818	1728.271	270.138	169.890	282.684
124.771	429.600	7549.516	736.725	916.513	1532.167	1713.980	268.839	169.584	287.893
125.531	431.900	7575.804	729.567	920.640	1585.686	1714.936	273.450	175.468	281.868
126.309	434.200	7596.360	732.127	917.494	1569.829	1704.708	275.679	173.914	292.236
127.099	436.500	7679.720	743.437	916.768	1573.421	1718.043	276.659	173.086	289.243
127.860	438.800	7602.716	746.774	924.995	1579.636	1717.279	270.813	172.908	290.937
128.625	441.100	7542.256	744.584	916.730	1551.807	1716.999	271.858	172.475	284.097
129.396	443.400	7713.676	744.851	920.805	1581.152	1710.350	279.805	173.392	293.624
130.159	445.700	7568.085	741.361	925.492	1554.125	1735.301	273.845	171.864	290.287
130.916	448.000	7635.385	758.543	932.650	1591.137	1710.452	276.990	172.297	293.178
131.680	450.300	7501.283	752.837	947.615	1550.814	1717.355	277.615	170.310	294.643
132.440	452.600	7465.824	757.549	925.072	1588.666	1711.942	273.182	170.883	295.331
133.201	455.000	7469.149	757.231	924.359	1561.487	1714.719	272.736	172.819	296.706
133.962	457.000	7659.686	770.337	928.957	1566.072	1710.159	282.365	175.532	300.642
134.724	459.300	7512.860	762.020	931.950	1571.014	1724.373	280.569	172.730	307.673
135.486	461.600	7638.824	773.024	933.070	1563.435	1717.164	275.895	173.685	302.603
136.261	463.900	7523.864	773.126	951.462	1578.821	1716.107	280.544	173.405	308.513
137.024	466.200	7630.201	773.495	932.039	1598.563	1734.652	278.302	173.125	296.324
137.785	468.500	7514.809	788.423	938.063	1570.886	1736.600	283.333	173.774	306.310
138.546	470.800	7665.863	769.980	943.591	1593.927	1711.471	279.652	174.207	304.208
139.306	473.200	7485.286	772.375	932.943	1570.046	1709.497	283.473	173.418	311.302
140.081	475.500	7602.907	771.598	923.556	1600.766	1724.373	280.990	174.335	304.221
140.843	477.800	7492.660	789.607	932.637	1595.684	1694.812	280.939	174.042	302.680
141.602	480.100	7570.747	775.431	928.562	1592.296	1733.442	279.512	170.412	302.094
142.360	482.400	7449.050	783.736	934.764	1601.288	1715.483	286.785	175.086	314.525
143.137	484.700	7431.028	772.184	929.682	1591.175	1728.283	281.805	172.386	315.977
143.896	487.000	7530.959	785.939	935.885	1596.283	1718.413	283.983	170.565	318.104
144.679	489.300	7448.694	785.761	932.051	1592.742	1716.910	281.830	169.660	314.614
145.441	491.600	7525.966	790.486	910.896	1609.236	1735.862	288.007	175.315	317.938
146.199	494.000	7406.485	794.676	946.011	1603.657	1730.971	284.467	171.494	316.180
146.963	496.300	7583.407	800.509	926.906	1622.061	1752.304	273.475	172.628	315.365
147.724	498.600	7479.898	808.533	934.675	1613.095	1759.793	291.752	174.793	311.990
148.495	500.900	7572.352	803.031	929.797	1642.312	1762.634	283.078	178.296	317.034
149.253	502.800	7453.776	777.393	944.546	1613.260	1753.947	283.843	173.723	320.142
150.011	505.100	7484.471	776.552	931.860	1636.734	1789.482	286.301	173.430	312.678
150.772	507.500	7436.047	797.262	940.305	1621.284	1785.878	294.732	171.278	319.823
151.533	509.800	7495.679	795.619	938.827	1656.220	1813.860	286.135	173.418	315.060
152.295	512.100	7444.835	797.555	943.871	1639.523	1800.384	295.496	173.953	319.696
153.087	514.400	7496.940	792.358	925.874	1648.693	1837.524	283.715	171.087	311.379
153.848	516.700	7385.559	791.874	946.291	1647.763	1867.696	294.388	174.615	317.620
154.612	519.000	7443.816	778.807	919.124	1640.962	1883.235	288.568	167.992	314.843
155.374	521.300	7459.940	795.708	938.865	1673.338	1913.560	295.140	174.679	322.281
156.133	523.600	7393.520	797.911	934.853	1652.743	1941.479	287.320	170.310	310.729
156.894	525.900	7496.748	778.259	933.860	1680.318	1965.067	288.109	174.093	323.428
157.654	528.200	7377.510	789.008	932.179	1682.725	1986.935	291.968	171.520	318.397
158.417	530.500	7486.190	782.882	930.039	1719.240	2041.371	286.810	170.221	319.645
159.176	532.800	7371.193	789.824	939.884	1687.985	2080.841	290.504	175.252	321.046
159.936	535.100	7501.168	781.991	934.790	1719.597	2086.356	286.963	172.399	316.932
160.698	537.500	7413.834	791.798	935.694	1705.256	2147.669	290.134	169.469	320.129
161.460	539.400	7595.481	784.423	937.159	1752.546	2153.350	287.956	174.029	321.390
162.224	541.700	7448.770	781.328	937.745	1742.956	2189.623	293.089	173.150	319.454
162.985	544.000	7538.053	788.932	935.006	1787.597	2195.571	293.726	171.685	316.856
163.745	546.400	7472.205	786.410	936.942	1751.693	2212.141	294.121	171.201	320.829
164.506	548.700	7565.933	790.333	941.718	1776.822	2146.090	288.721	173.469	310.080
165.266	551.000	7463.914	778.934	928.969	1749.426	2073.849	288.682	169.584	316.550
166.060	553.300	7510.606	762.007	920.003	1761.016	2002.830	287.332	171.367	312.793
166.821	555.600	7372.708	783.595	927.403	1728.334	1904.785	291.676	170.654	312.219
167.583	557.900	7479.452	780.360	921.251	1680.815	1846.414	284.811	170.870	309.214
168.347	560.200	7393.214	792.982	930.332	1693.029	1789.113	288.670	174.589	310.704
169.109	562.500	7357.870	773.228	933.491	1629.015	1767.639	291.930	170.463	304.437
169.870	564.800	7315.891	786.372	918.844	1656.857	1725.354	289.791	175.990	320.180
170.648	567.100	7270.129	785.875	918.360	1633.690	1728.487	290.325	169.839	311.570
171.411	569.400	7347.757	780.883	924.117	1645.535	1707.064	282.824	169.724	315.085
172.175	571.700	7298.595	768.707	934.930	1622.456	1677.121	295.496	168.718	310.245
172.935	574.000	7275.593	782.207	917.672	1634.963	1678.076	292.987	171.953	315.149
173.694	576.400	7309.179	777.546	941.909	1608.764	1680.089	290.466	168.298	311.557
174.470	578.700	7359.195	778.768	925.709	1629.372	1670.447	287.676	171.214	311.392
175.230	581.000	7265.213	774.947	934.051	1591.099	1666.690	289.931	168.743	312.500
175.993	583.300	7366.174	787.098	918.003	1602.307	1641.930	293.013	172.118	309.965
176.750	585.200	7275.172	776.756	931.618	1597.926	1653.635	293.357	165.725	315.200
177.513	587.600	7327.048	770.859	930.943	1608.917	1653.075	287.689	169.151	314.359
178.272	589.900	7237.906	785.328	928.103	1600.397	1655.367	293.637	167.814	313.175
179.036	592.200	7300.684	769.866	927.237	1619.374	1679.312	291.905	171.252	313.761
179.797	594.500	7256.170	772.973	924.129	1604.842	1649.814	290.759	169.278	317.964
180.560	596.800	7319.534	764.631	926.142	1623.271	1655.991	288.007	168.540	312.665
181.322	599.100	7245.446	774.183	931.529	1592.857	1642.936	295.356	169.890	315.505
182.084	601.400	7313.000	774.005	924.766	1600.702	1654.437	287.562	166.285	310.169
182.846	603.700	7233.703	770.451	921.276	1604.740	1642.542	288.186	172.921	314.563
183.605	606.000	7230.417	758.466	909.674	1585.024	1655.100	293.943	166.616	314.983
184.368	608.300	7275.847	769.140	938.738	1609.414	1641.255	291.293	170.042	307.227
185.130	610.600	7208.816	769.445	925.441	1597.798	1664.143	282.531	166.476	307.876
185.888	612.900	7317.190	763.777	920.933	1601.607	1643.968	291.446	169.660	308.462
186.686	615.200	7241.408	771.852	927.887	1578.006	1660.780	291.637	167.100	302.769
187.447	617.500	7300.059	786.716	922.244	1601.352	1640.096	296.197	170.858	311.251
188.207	619.900	7176.694	758.186	922.703	1560.990	1631.002	288.848	162.923	304.820
188.970	622.300	7241.548	757.498	908.413	1568.810	1619.998	287.014	171.125	305.240
189.765	624.700	7159.334	755.868	912.043	1546.942	1609.541	286.683	162.299	306.399
190.535	627.100	7200.728	750.162	911.890	1540.854	1635.129	282.633	166.209	301.903
191.303	629.500	7135.976	758.556	906.782	1542.739	1612.789	280.327	168.056	304.348
192.092	631.800	7240.109	736.356	904.834	1539.045	1636.033	274.825	166.081	297.305
192.886	634.200	7291.488	744.711	903.000	1562.608	1611.668	278.073	169.444	303.253
193.676	636.500	7150.164	744.596	905.241	1529.480	1639.434	282.824	165.661	305.813
194.447	638.800	7200.702	740.954	888.187	1563.716	1606.688	283.601	163.254	303.928
195.222	641.100	7131.454	744.112	896.797	1539.567	1617.718	281.461	162.018	296.299
196.006	643.700	7221.234	743.501	893.944	1555.373	1629.627	282.696	165.916	291.268
196.770	645.700	7132.410	729.644	902.860	1531.836	1608.191	284.365	163.980	295.331
197.560	648.300	7218.648	727.364	891.002	1544.254	1619.756	278.875	163.114	295.955
198.337	650.600	7079.986	734.509	899.013	1534.868	1623.857	282.047	167.482	299.407
199.098	652.900	7187.966	722.588	897.778	1515.750	1628.047	285.040	165.954	294.274
199.856	655.200	7133.390	736.305	886.570	1543.898	1608.573	278.965	169.024	300.718
200.617	657.200	7151.986	737.247	900.605	1526.704	1618.954	278.697	163.534	293.255
201.379	659.500	7152.024	713.252	889.002	1541.185	1604.905	284.518	165.776	290.389
202.143	661.800	7126.907	735.362	884.137	1515.788	1631.219	277.640	163.445	290.606
202.905	664.100	7218.890	720.053	893.422	1538.841	1591.914	276.850	165.980	293.408
203.673	666.400	7094.710	730.370	889.308	1527.722	1605.389	279.601	165.903	291.408
204.432	668.700	7175.714	729.427	895.523	1532.320	1609.860	273.106	169.609	290.924
205.193	670.900	7124.424	715.379	874.355	1534.435	1627.143	277.118	163.891	288.899
205.954	673.200	7170.059	726.855	887.334	1540.828	1599.773	272.915	166.591	291.370
206.717	675.500	7116.807	723.174	889.958	1528.436	1619.425	282.200	162.744	292.542
207.479	677.800	7214.560	720.321	887.015	1552.890	1603.976	273.641	168.883	287.294
208.241	680.100	7161.436	728.281	886.901	1510.898	1591.354	278.315	163.903	292.452
209.000	682.400	7115.432	732.624	878.265	1551.705	1597.302	273.169	164.910	286.339
209.769	684.700	7078.764	712.513	893.218	1531.633	1601.352	276.812	163.292	289.434
210.530	687.000	7235.409	720.601	890.301	1551.578	1613.299	277.920	164.018	288.491
211.291	689.300	7119.813	723.237	890.136	1537.173	1611.605	278.850	160.006	286.059
212.054	691.300	7151.043	711.316	881.106	1525.010	1597.658	273.144	161.649	288.504
212.815	693.600	7079.757	708.514	902.337	1516.336	1591.952	276.506	164.222	287.511
213.576	695.900	7299.410	721.403	881.704	1520.374	1620.189	282.034	160.859	289.561
214.354	698.200	7132.817	716.678	884.048	1538.485	1596.907	275.959	165.368	283.868
215.130	700.500	7159.271	703.954	884.073	1521.787	1615.973	280.837	161.802	285.409
215.926	703.200	7196.156	709.329	893.052	1529.684	1592.564	270.546	167.113	288.988
216.704	705.500	7162.417	714.054	879.246	1508.860	1606.064	279.767	163.025	288.644
217.481	707.800	7232.505	726.905	873.769	1545.413	1600.193	273.590	166.871	289.014
218.242	710.100	7135.976	704.961	887.347	1528.245	1599.212	273.437	160.872	283.728
219.030	712.400	7167.791	689.613	885.169	1545.069	1618.279	277.360	164.795	286.301
219.812	714.700	7143.388	712.857	882.800	1515.368	1595.544	273.653	159.637	288.963
220.601	717.000	7145.936	704.629	890.301	1532.995	1626.888	274.125	159.560	284.187
221.377	719.300	7175.408	714.054	886.289	1546.305	1577.675	275.538	162.044	287.129
222.143	721.600	7128.092	709.125	881.692	1525.124	1592.271	275.882	160.503	286.797
222.923	723.900	7236.110	697.637	877.807	1537.211	1588.705	274.953	167.992	284.747
223.686	726.200	7123.418	694.135	889.015	1517.737	1602.995	273.246	162.617	283.613
224.449	728.500	7204.052	699.140	879.450	1534.702	1589.838	270.024	165.368	281.346
225.247	730.900	7112.503	704.336	879.552	1501.702	1581.610	277.436	162.337	283.448
226.009	733.200	7155.335	704.158	896.988	1528.092	1591.086	272.074	164.477	281.970
226.769	735.500	7105.663	710.233	887.105	1508.631	1589.673	272.889	163.738	282.365
227.531	737.800	7244.070	708.412	890.047	1552.075	1609.032	271.628	165.419	284.085
228.295	740.100	7168.428	714.360	895.294	1522.666	1591.112	277.347	165.992	283.894
229.055	742.400	7276.064	707.266	888.480	1548.648	1609.682	270.902	167.444	286.033
229.830	744.700	7185.979	705.814	891.371	1547.884	1600.741	270.864	167.737	284.365
230.590	747.000	7291.526	686.251	895.689	1543.134	1595.175	268.788	165.457	282.964
231.351	749.300	7213.604	698.376	896.606	1549.757	1589.138	268.088	167.177	283.244
232.113	751.600	7254.297	692.110	879.017	1527.824	1600.702	275.972	164.668	286.008
232.873	753.900	7300.989	699.662	890.301	1541.682	1576.936	269.552	163.661	288.950
233.632	756.200	7145.159	682.086	888.773	1526.411	1588.272	274.048	163.891	277.971
234.395	758.500	7253.329	690.734	894.555	1554.877	1580.069	270.431	164.082	285.537
235.152	760.500	7176.070	687.206	883.424	1530.690	1590.488	274.621	162.477	275.857
235.916	762.700	7313.573	717.786	907.699	1582.706	1588.756	277.678	162.948	285.333
236.685	765.100	7215.821	708.030	895.931	1549.591	1608.217	275.577	167.317	279.474
237.446	767.300	7324.233	696.784	895.116	1561.627	1581.661	270.788	164.451	286.492
238.209	769.600	7219.068	696.427	898.822	1568.721	1605.924	275.029	169.622	283.129
238.968	771.900	7199.327	705.878	891.868	1594.487	1586.539	276.303	166.514	279.334
239.731	774.300	7266.626	701.789	900.503	1547.082	1598.308	267.578	166.642	285.447
240.491	776.600	7354.712	699.942	903.471	1558.761	1599.085	271.476	166.069	277.818
241.252	778.900	7264.346	710.437	908.769	1566.225	1605.975	271.399	163.050	285.893
242.015	781.200	7338.600	696.504	913.010	1582.362	1610.165	269.056	166.260	280.442
242.779	783.500	7291.348	695.319	914.539	1570.071	1607.020	269.285	163.521	282.454
243.538	785.800	7377.905	709.316	915.749	1565.652	1616.139	273.182	166.947	281.270
244.298	788.100	7180.974	698.312	916.551	1592.908	1600.804	272.978	166.986	286.963
245.059	790.500	7455.304	707.610	912.221	1620.457	1613.502	270.546	166.451	283.588
245.820	792.400	7327.456	719.658	916.628	1572.860	1619.782	273.845	167.164	282.696
246.578	794.700	7390.119	715.099	912.399	1597.429	1618.610	265.031	163.254	272.431
247.340	797.000	7044.859	674.559	874.712	1503.256	1493.194	259.707	161.140	272.724
248.105	799.100	6776.642	661.364	833.624	1419.781	1482.712	256.625	156.733	260.484
248.866	800.700	6642.757	636.846	821.677	1413.222	1428.276	251.123	161.012	251.046
249.625	801.800	6538.063	628.325	809.820	1372.070	1454.080	241.672	133.744	200.584
250.413	802.500	4711.746	471.935	555.486	990.817	999.911	205.055	137.475	197.553
251.175	800.900	4657.195	468.674	554.454	960.275	995.428	202.393	134.215	192.484
251.936	798.500	4702.639	458.472	530.751	958.874	990.232	200.381	134.317	192.306
252.694	795.300	4616.821	445.646	532.152	938.764	978.934	196.814	135.285	186.638
253.452	791.600	4655.068	446.818	522.473	949.882	970.299	200.877	134.864	186.855
254.213	787.500	4604.632	440.208	508.284	920.219	973.725	196.445	134.419	182.983
254.978	783.100	4691.342	429.790	511.226	920.550	966.911	196.063	134.138	183.670
255.740	778.500	4615.624	430.656	520.040	919.901	956.709	189.287	135.769	181.849
256.502	773.800	4648.535	441.991	504.311	912.590	975.559	193.057	133.654	177.175
257.262	769.700	4504.562	429.764	495.166	913.698	960.976	194.891	135.030	182.320
258.025	764.900	4632.066	426.618	499.967	926.333	969.739	189.950	132.852	175.468
258.787	760.100	4603.244	421.868	493.994	912.807	964.606	192.535	134.215	180.817
259.547	755.300	4658.036	426.924	495.306	927.428	975.954	188.905	136.698	176.271
260.306	750.500	4621.852	424.644	491.307	908.464	958.798	192.013	135.832	178.410
261.063	745.700	4593.742	418.887	482.913	905.840	956.149	186.230	132.215	176.806
261.822	740.900	4571.466	427.128	493.854	908.298	948.545	187.912	136.405	176.309
262.585	736.200	4643.848	423.587	479.194	915.239	950.621	184.587	135.081	177.442
263.345	731.600	4616.197	411.640	483.168	901.624	946.316	189.211	131.833	172.615
264.101	726.900	4527.768	413.169	474.329	898.809	955.194	185.912	132.903	174.449
264.860	722.300	4549.127	412.213	479.793	912.463	955.346	185.173	134.750	170.883
265.620	718.400	4589.170	406.291	475.896	896.428	948.991	186.205	133.629	169.941
266.381	713.900	4602.047	413.958	486.454	908.132	943.591	185.696	136.826	169.788
267.139	709.400	4527.436	418.123	472.253	895.854	937.414	187.644	132.113	168.692
267.900	705.000	4609.752	410.316	473.297	908.973	938.203	186.078	134.864	172.029
268.662	700.600	4584.496	405.488	477.169	886.035	967.421	184.002	132.050	169.546
269.420	696.300	4645.758	413.703	473.628	903.344	940.954	184.167	133.527	169.648
270.183	692.000	4575.975	403.807	471.794	887.461	937.554	182.218	135.922	170.717
270.939	687.700	4602.556	402.152	462.357	900.427	931.593	185.059	134.992	169.673
271.701	683.500	4582.534	405.119	471.642	892.199	934.586	185.364	132.394	168.298
272.459	679.300	4596.646	408.214	465.248	884.213	925.352	179.264	135.221	166.706
273.219	675.200	4473.357	405.068	474.100	894.403	934.981	184.524	131.731	167.763
273.978	671.700	4630.653	395.248	472.062	893.906	936.993	186.689	131.820	167.049
274.753	667.600	4597.525	394.089	471.922	873.999	932.268	184.422	133.107	168.960
275.514	663.600	4605.702	389.186	461.083	881.437	936.993	181.200	130.738	168.667
276.272	659.600	4544.592	394.077	461.376	872.993	921.773	182.881	133.565	168.107
277.031	655.700	4591.233	404.113	469.349	895.370	920.741	177.226	131.731	165.292
277.794	651.800	4544.860	398.878	474.202	865.796	923.811	184.422	131.133	166.642
278.558	648.000	4590.125	397.668	469.158	890.098	918.283	180.410	133.285	163.572
279.320	644.200	4506.689	386.639	471.693	885.742	912.616	178.257	132.737	166.680
280.114	640.400	4547.267	379.404	461.300	882.978	927.594	179.264	131.540	166.693
280.908	636.700	4549.916	384.473	460.242	896.046	918.895	179.174	132.444	164.961
281.669	633.000	4530.009	386.613	449.595	885.079	912.476	179.824	130.572	164.209
282.428	629.400	4495.341	386.205	463.656	889.181	922.639	176.806	132.202	166.871
283.189	625.900	4512.955	380.945	465.324	876.648	915.137	178.398	132.368	164.018
