Fri, Jul 21, 2017	3:25 PM
 Notes: background
 waiting time: 25.000
 time(s)	 temp (K)	 MS1=1.942	 MS2=14.600	 MS3=17.577	 MS4=27.796	 MS5=43.737	 MS6=28.818	 MS7=27.000	 MS8=60.080
0.000	96.100	5223.114	239.265	497.751	717.391	674.457	127.592	118.090	100.501
0.747	96.100	5325.986	243.646	507.800	714.258	663.924	128.292	120.536	100.934
1.518	96.000	5222.006	237.507	520.855	716.016	665.019	129.668	120.332	100.973
2.291	96.000	5307.760	237.176	515.391	709.444	658.180	129.197	118.396	100.170
3.056	96.000	5234.449	236.323	520.257	713.519	657.352	130.088	116.626	100.743
3.848	96.000	5281.651	241.851	502.451	719.620	664.089	128.636	116.830	100.654
4.619	95.900	5216.899	240.590	514.907	710.399	654.028	129.426	119.542	99.967
5.378	95.900	5260.101	236.527	504.642	708.527	653.544	127.732	119.097	99.928
6.153	95.900	5167.812	240.781	507.546	701.738	646.640	131.082	120.370	99.419
6.914	95.900	5239.939	247.824	500.872	702.795	657.759	125.287	118.689	102.234
7.694	95.900	5202.086	241.774	512.258	713.889	651.811	127.770	118.141	101.329
8.486	95.800	5171.379	236.807	496.580	703.598	650.334	128.331	118.498	100.960
9.255	95.800	5182.497	240.781	507.966	708.196	646.475	127.617	118.944	101.355
10.015	95.800	5120.382	238.450	508.195	697.319	654.142	125.656	117.326	102.030
10.797	95.800	5170.614	245.086	497.917	706.400	648.640	126.369	119.823	101.673
11.587	95.800	5121.477	237.355	507.227	684.124	640.438	126.509	120.510	102.272
12.345	95.800	5147.549	232.769	488.365	702.260	636.999	127.503	120.319	100.985
13.125	95.800	5093.559	235.763	514.996	683.589	637.356	128.190	117.989	101.750
13.900	95.800	5142.288	239.494	491.676	703.700	642.539	131.145	118.536	101.380
14.676	95.800	5116.179	238.144	501.254	693.753	629.994	127.452	120.358	101.100
15.477	95.800	5092.158	237.444	500.222	687.028	639.546	125.847	117.734	103.800
16.264	96.000	5159.062	251.314	496.427	702.044	636.566	128.904	120.714	100.845
17.024	96.200	5128.024	277.105	501.025	691.180	643.724	129.324	119.453	101.584
17.813	96.600	5210.339	328.904	490.415	721.200	647.672	129.961	120.128	102.335
18.575	97.300	5109.721	363.573	501.177	725.122	656.473	129.961	119.784	101.801
19.330	98.400	5196.609	422.925	509.583	736.381	660.217	130.050	121.478	104.017
20.088	99.900	5106.690	438.731	503.164	722.511	648.373	130.789	124.051	103.011
20.857	101.800	5205.538	445.417	503.903	724.269	653.633	129.974	123.873	101.839
21.644	104.100	5123.337	433.343	499.764	712.755	648.232	132.890	123.554	102.641
22.415	106.900	5175.327	447.251	503.597	730.714	648.538	133.107	125.490	103.329
23.176	109.800	5119.032	473.718	503.355	711.125	645.583	128.738	123.121	104.475
23.953	112.900	5119.325	472.049	506.005	721.696	636.731	128.980	122.969	101.087
24.713	116.100	5116.204	470.342	501.483	719.009	638.336	131.935	123.618	103.393
25.494	119.300	5090.820	475.131	497.789	703.483	641.686	131.362	124.459	104.080
26.257	122.400	5160.438	457.682	496.707	719.620	628.860	131.438	124.650	105.163
27.031	125.500	5063.692	431.636	493.536	703.267	642.603	131.515	123.745	103.724
27.822	128.600	5101.787	425.981	500.897	700.006	641.928	131.005	126.471	104.475
28.595	131.600	5062.469	405.488	491.931	708.145	643.622	131.960	125.847	102.985
29.356	134.600	5109.110	395.681	498.999	701.611	635.713	131.859	123.937	101.571
30.112	137.500	4963.201	371.482	501.674	693.574	634.273	129.324	121.822	104.195
30.885	140.300	5034.653	348.684	519.187	704.311	641.431	130.394	124.026	104.080
31.645	143.200	4987.184	344.022	534.458	700.172	629.102	128.853	124.128	105.774
32.402	146.000	5060.737	346.353	556.759	696.516	630.720	128.674	122.204	105.621
33.159	148.400	4974.231	338.546	573.087	701.955	636.910	130.891	124.586	104.692
33.921	151.100	5055.744	321.046	575.469	694.848	634.248	129.961	124.064	104.896
34.692	153.800	5012.848	318.346	589.441	694.568	623.957	128.776	122.243	105.036
35.465	156.400	4981.491	309.570	578.360	680.481	626.313	131.362	123.758	106.398
36.224	159.100	4995.399	308.895	568.031	698.694	619.856	130.114	122.548	108.857
36.983	161.600	4955.789	298.095	548.761	690.161	626.466	133.247	121.173	108.831
37.739	164.200	4937.334	297.904	566.821	704.069	616.939	133.871	124.637	115.620
38.497	166.700	4924.801	305.991	556.530	688.327	631.624	140.583	122.879	117.441
39.277	169.200	4953.725	307.150	541.170	700.133	624.899	140.023	125.783	122.344
40.038	171.700	4961.316	308.615	539.629	691.626	627.332	140.659	122.102	116.689
40.799	174.200	4944.148	295.840	529.210	705.062	616.480	134.979	122.854	114.155
41.574	176.700	4874.607	281.983	533.592	689.473	620.696	134.686	123.898	115.556
42.333	179.100	4947.867	283.881	522.205	698.172	632.987	133.463	123.096	114.168
43.091	181.500	4836.321	280.251	522.001	693.319	612.214	136.864	121.822	117.696
43.858	183.900	4927.055	290.313	516.971	692.313	622.441	138.189	126.000	118.345
44.658	186.300	4883.649	289.307	521.670	698.121	624.543	139.080	124.357	118.090
45.453	188.700	4865.857	282.416	517.913	683.767	624.606	136.647	123.605	116.486
46.215	191.100	4879.778	276.596	521.479	695.714	627.256	136.482	123.975	113.875
46.988	193.500	4855.464	274.048	506.488	693.574	622.823	134.393	121.618	112.805
47.776	195.800	4903.391	269.565	504.871	696.580	626.288	134.100	123.898	112.397
48.557	198.200	4825.966	261.299	508.195	680.430	615.691	134.406	123.045	113.633
49.325	200.500	4892.896	261.006	497.000	695.765	631.038	132.317	119.619	108.946
50.084	202.900	4787.222	259.159	504.145	698.338	624.874	132.725	122.612	110.716
50.843	205.300	4874.683	264.916	489.842	694.797	626.975	135.068	122.765	108.615
51.601	207.600	4804.594	251.110	487.333	690.416	625.371	134.100	122.905	108.449
52.385	209.900	4850.331	248.894	481.869	693.994	623.613	132.636	122.217	108.742
53.144	212.200	4755.419	254.714	487.065	687.015	623.728	133.718	122.344	110.130
53.903	214.600	4874.950	254.753	482.124	692.415	623.269	132.495	123.121	108.869
54.661	216.900	4773.492	254.612	490.835	687.728	621.550	133.285	122.268	110.652
55.421	219.200	4795.933	245.468	485.983	694.682	629.408	133.629	124.866	109.391
56.178	221.600	4777.211	244.016	480.175	688.543	612.558	135.017	123.682	108.525
56.948	223.900	4781.987	251.046	477.335	671.515	613.284	131.489	122.969	109.341
57.730	226.200	4813.892	246.703	472.775	686.098	618.722	131.324	124.943	108.309
58.517	228.500	4734.607	245.035	474.647	687.499	630.350	131.260	122.294	108.615
59.277	230.800	4783.121	242.640	471.285	681.436	617.856	133.616	122.867	109.442
60.033	233.100	4701.786	248.575	468.292	685.474	620.824	134.482	122.395	108.411
60.819	235.500	4750.120	248.588	473.641	686.773	633.458	133.871	124.841	108.003
61.588	237.800	4749.649	250.129	461.745	673.591	620.760	135.259	120.918	108.513
62.348	240.100	4780.828	249.798	462.790	690.976	618.429	137.144	123.491	108.373
63.126	242.400	4740.250	255.058	462.611	694.708	623.931	134.457	124.510	107.150
63.887	244.700	4797.780	250.027	458.918	687.614	619.181	133.553	121.389	108.232
64.646	247.000	4720.763	247.633	460.166	690.581	609.348	133.107	126.853	108.271
65.409	249.300	4774.600	250.104	453.772	684.531	624.797	133.782	124.191	108.971
66.167	251.700	4721.833	244.627	460.179	678.507	610.303	133.591	123.363	107.710
66.927	254.000	4735.537	253.708	449.773	678.545	610.825	134.775	122.319	108.933
67.685	255.900	4724.558	239.622	449.073	686.939	612.787	134.852	124.790	110.525
68.445	258.300	4728.545	248.779	460.344	684.009	611.908	135.094	125.618	109.022
69.201	260.600	4758.552	247.327	459.618	699.127	605.922	135.004	125.159	109.519
69.961	262.900	4708.905	249.683	449.990	685.614	608.444	133.896	124.026	108.309
70.725	265.200	4742.746	245.812	445.825	680.761	607.743	133.132	122.969	107.023
71.484	267.500	4632.385	239.443	450.983	680.392	617.385	133.323	122.714	110.028
72.280	269.800	4722.100	243.965	445.188	680.876	612.418	130.432	125.732	111.098
73.041	272.100	4705.492	245.519	450.754	680.430	602.929	132.483	124.064	108.742
73.801	274.400	4711.707	246.716	445.901	684.722	601.299	134.100	125.465	108.449
74.563	276.700	4668.365	244.283	437.011	657.721	602.623	131.451	123.656	108.564
75.321	279.100	4628.245	243.748	431.331	680.838	598.637	131.910	126.713	109.226
76.096	281.400	4643.733	242.882	443.277	674.533	598.293	132.253	123.185	108.156
76.857	283.700	4705.759	247.951	431.203	680.608	599.070	133.858	124.382	110.550
77.617	286.000	4590.469	242.538	436.833	665.630	602.891	134.635	124.013	109.544
78.396	288.300	4688.603	244.856	432.057	679.424	600.573	134.024	122.243	107.634
79.157	290.600	4672.734	249.391	433.012	676.940	605.858	131.285	123.300	108.844
79.917	292.900	4705.645	245.086	438.820	663.363	586.079	131.145	122.294	108.971
80.678	295.300	4634.206	245.913	435.139	661.466	589.861	133.069	122.918	109.990
81.436	297.200	4659.246	241.761	431.611	672.623	602.751	132.241	123.223	108.016
82.196	299.500	4694.602	243.468	435.992	676.304	586.270	132.737	121.364	108.143
82.990	302.200	4642.854	243.061	432.592	660.128	587.467	132.381	120.778	108.474
83.766	304.500	4633.595	237.495	423.192	667.414	587.785	128.649	120.141	107.685
84.524	306.500	4601.537	234.145	427.077	658.842	590.625	132.126	121.733	107.787
85.306	309.100	4689.839	249.480	434.502	673.476	592.803	130.967	122.752	108.615
86.068	311.400	4629.188	240.029	426.797	652.232	582.691	128.687	120.077	109.188
86.830	313.400	4689.762	243.175	422.810	667.847	585.060	132.839	122.879	109.506
87.588	315.700	4611.764	240.195	428.885	659.453	576.348	131.209	121.950	109.175
88.363	318.000	4645.376	241.226	423.154	663.898	592.638	129.986	122.052	109.124
89.122	320.300	4587.209	247.735	422.250	654.333	582.360	134.037	122.421	107.175
89.880	322.600	4642.090	249.149	420.887	655.938	586.677	132.075	123.198	109.009
90.658	324.900	4625.685	243.570	418.480	661.988	587.097	132.890	123.873	110.016
91.414	327.200	4672.339	239.813	423.663	660.612	588.944	130.942	122.637	105.583
92.176	329.600	4604.721	242.627	408.380	662.777	571.826	132.317	119.874	107.519
92.935	331.900	4595.678	243.226	414.608	652.779	574.807	130.598	121.198	107.736
93.697	334.200	4620.820	241.341	422.721	652.894	591.301	128.929	122.153	109.939
94.453	336.500	4573.963	239.724	415.130	653.964	581.850	132.801	125.096	109.825
95.213	338.800	4640.154	240.615	415.219	659.733	573.559	130.891	122.370	108.016
95.974	341.100	4543.102	230.795	417.881	649.430	579.634	135.017	122.650	106.526
96.732	343.100	4604.326	239.405	414.213	656.524	571.852	131.604	123.249	106.105
97.486	345.400	4499.493	242.105	413.882	640.463	574.285	128.573	122.752	108.971
98.247	347.700	4611.153	240.666	417.932	661.873	577.902	131.680	119.619	107.634
99.009	350.000	4559.749	239.278	407.322	653.327	573.368	131.693	120.778	108.360
99.790	352.300	4616.197	247.493	407.768	656.549	578.819	128.560	125.159	109.264
100.570	354.600	4550.171	248.843	414.277	646.322	576.513	133.807	122.039	107.952
101.330	356.900	4620.782	237.546	401.273	660.256	576.361	130.407	121.287	108.105
102.090	359.200	4571.071	238.959	411.105	648.615	571.495	129.362	119.772	108.844
102.849	361.500	4575.886	238.654	405.858	652.779	574.985	132.877	121.606	107.927
103.600	363.800	4521.501	228.350	415.054	640.731	563.102	133.107	121.529	106.666
104.357	366.200	4564.958	238.947	410.175	656.830	568.400	133.081	120.994	107.494
105.117	368.500	4446.980	238.908	404.966	642.883	562.440	130.598	121.810	109.264
105.879	370.800	4532.824	234.323	402.916	648.767	566.503	129.604	120.778	111.671
106.640	373.100	4499.760	238.832	412.252	645.099	569.508	130.381	121.198	109.188
107.402	375.100	4577.542	239.265	401.960	644.934	571.725	132.686	121.797	107.608
108.164	377.400	4520.928	239.329	409.972	651.684	563.815	132.215	120.332	107.940
108.950	380.000	4552.222	241.838	406.316	649.506	567.369	133.005	121.835	109.035
109.709	382.000	4564.168	245.124	408.354	645.137	563.739	130.623	120.243	107.086
110.469	384.300	4494.908	239.354	403.107	643.252	563.178	130.967	120.294	108.946
111.244	386.600	4548.617	236.832	410.952	651.085	562.809	130.203	122.243	110.334
112.004	388.900	4481.356	233.203	401.273	632.528	553.957	131.133	118.957	107.608
112.761	391.200	4515.286	243.621	406.380	648.869	560.797	130.827	121.453	108.564
113.523	393.500	4553.330	240.309	420.352	661.491	589.658	132.037	122.370	109.735
114.287	395.800	4727.259	249.212	422.848	679.742	584.487	132.419	123.682	109.532
115.035	398.100	4683.420	247.518	427.331	674.431	596.777	136.571	125.363	107.952
115.790	400.500	4762.513	251.097	422.390	686.098	588.295	133.425	123.809	112.346
116.552	402.800	4695.838	246.767	418.340	673.094	587.390	134.228	125.681	108.500
117.311	405.100	4717.006	247.149	428.032	685.652	586.703	134.317	122.153	111.136
118.073	407.400	4687.508	248.333	424.886	680.417	593.058	135.463	122.777	109.608
118.832	409.300	4727.360	244.258	427.089	692.492	586.002	132.113	125.694	110.487
119.591	411.700	4690.679	248.359	422.581	666.828	586.473	134.584	122.574	111.111
120.355	414.000	4735.308	253.810	420.492	687.142	588.995	132.814	127.210	111.748
121.115	416.300	4671.511	254.663	419.613	674.597	583.569	132.967	123.529	110.334
121.875	418.600	4723.361	247.174	424.071	688.976	589.581	129.668	125.210	110.742
122.634	420.900	4639.619	248.805	421.969	681.156	591.275	134.661	124.994	110.780
123.415	423.200	4706.944	252.613	416.327	683.525	583.939	133.349	121.122	110.843
124.201	425.500	4673.141	253.645	417.193	690.314	588.256	134.979	123.937	111.862
124.961	427.800	4642.230	245.608	425.306	681.920	577.418	134.113	120.740	112.066
125.722	430.100	4695.927	250.868	421.256	703.598	589.046	133.514	123.338	111.939
126.482	432.400	4658.023	247.900	420.645	685.155	589.619	132.737	123.898	110.156
127.261	434.700	4672.173	249.174	428.325	696.746	594.192	133.311	124.548	109.430
128.024	437.000	4658.940	250.550	424.670	686.009	599.821	131.120	122.102	108.984
128.787	439.400	4705.950	253.428	416.225	684.786	597.541	131.387	123.440	110.716
129.544	441.700	4596.124	251.594	418.314	670.725	588.562	132.139	120.612	110.372
130.322	444.000	4693.825	250.499	424.045	689.129	589.632	135.922	124.561	110.754
131.083	446.300	4638.129	246.015	419.549	667.656	595.975	131.897	121.033	110.640
131.843	448.600	4669.002	252.320	418.136	695.039	590.001	130.101	123.134	109.137
132.605	450.900	4618.324	249.989	428.147	669.299	583.544	133.795	123.121	112.728
133.366	453.200	4650.267	254.256	421.918	686.658	590.689	132.508	120.956	110.194
134.125	455.200	4621.622	253.301	422.160	685.614	584.996	133.642	126.280	112.537
134.927	457.800	4656.495	254.370	414.162	680.965	590.880	132.967	122.727	111.913
135.685	460.100	4631.086	255.428	418.187	694.224	582.602	133.731	123.198	112.257
136.448	462.500	4646.229	249.925	423.256	689.690	585.938	134.291	123.312	110.971
137.242	464.800	4666.289	253.339	428.274	697.510	585.977	132.037	122.816	109.977
138.002	467.200	4612.478	252.740	418.607	673.069	587.734	132.648	122.166	110.245
138.764	469.500	4600.696	254.740	417.384	686.531	587.836	130.967	123.784	110.742
139.523	472.000	4622.208	255.682	418.862	681.462	588.677	132.126	121.784	113.200
140.285	474.000	4642.612	250.792	411.538	686.340	584.741	133.731	123.975	111.582
141.044	476.400	4581.783	244.742	420.467	684.124	579.736	134.253	120.829	111.926
141.803	479.000	4694.195	249.059	412.455	679.895	577.851	134.444	123.007	110.831
142.566	481.500	4621.584	245.137	422.606	655.479	577.239	130.547	120.510	111.493
143.325	483.900	4652.890	248.117	407.883	678.201	589.365	131.043	121.937	112.028
144.084	486.100	4562.181	246.423	416.722	661.058	583.519	129.273	120.498	110.907
144.843	488.100	4623.367	245.684	413.767	687.550	591.937	132.750	122.752	109.570
145.605	490.100	4563.060	251.683	407.157	683.270	580.233	133.871	122.574	110.780
146.365	492.100	4652.228	248.601	409.475	706.514	599.121	135.667	123.987	111.926
147.124	494.300	4559.481	255.963	412.226	694.109	589.989	134.393	125.134	112.143
147.886	496.500	4605.893	260.076	423.829	698.783	590.867	133.043	121.198	112.537
148.643	498.400	4566.856	254.600	415.245	686.989	588.307	137.004	123.542	113.174
149.402	500.700	4632.907	258.943	408.099	707.393	595.644	132.699	124.089	114.155
150.161	503.000	4587.285	257.771	423.294	692.734	602.394	131.018	121.899	113.009
150.918	505.300	4642.803	256.064	413.385	692.186	598.815	135.068	125.452	110.971
151.681	507.600	4635.467	265.158	414.875	707.431	600.318	134.342	124.089	112.588
152.455	509.900	4595.194	262.343	412.111	699.165	594.981	132.088	125.312	110.334
153.209	512.200	4551.738	257.720	420.543	714.195	597.389	135.412	125.185	112.550
