Wed, Mar 30, 2016	7:50 PM
 Notes: 
 waiting time: 30.000
 time(s)	 temp (K)	 MS1=2.085	 MS2=15.166	 MS3=17.074	 MS4=26.712	 MS5=41.148	 MS6=42.035	 MS7=42.992	 MS8=57.407
0.000	170.000	401.971	153.199	219.928	449.083	2.595	161.341	1.661	-0.361
0.794	170.000	404.801	145.426	226.343	463.224	2.589	157.863	2.595	-0.205
1.581	170.000	404.188	146.212	220.992	448.092	1.730	153.860	2.668	-0.876
2.370	170.000	407.719	151.201	227.874	432.248	2.674	164.616	2.565	-0.245
3.156	170.000	400.293	143.786	229.972	441.794	1.627	160.207	2.356	-0.545
3.943	170.000	403.429	152.006	238.529	432.797	3.634	152.442	2.617	-0.015
4.731	170.000	406.854	140.616	237.691	443.032	4.045	151.867	3.412	-0.265
5.520	170.000	399.728	146.466	236.161	428.813	2.931	149.196	2.123	-1.133
6.308	170.000	395.472	146.670	240.497	427.498	3.139	156.753	2.561	-0.947
7.099	170.000	392.352	144.445	238.398	435.257	1.966	150.665	3.332	-1.081
7.889	170.000	402.307	144.193	240.097	447.956	3.078	152.382	3.666	-0.169
8.680	170.100	399.550	147.602	245.295	431.467	1.763	150.589	3.279	-0.514
9.469	170.300	389.590	139.460	239.052	446.091	3.506	158.469	2.382	-0.980
10.258	170.700	396.607	144.488	251.864	439.274	4.189	155.524	4.549	-0.882
11.049	171.700	412.342	144.908	245.706	455.781	3.303	150.569	3.302	0.547
11.840	173.000	396.445	144.297	258.236	445.931	2.363	158.634	3.741	-1.441
12.630	174.700	406.108	147.069	279.051	447.700	5.294	153.512	4.704	-0.957
13.420	177.000	406.240	148.838	285.648	437.188	5.344	158.318	3.761	-0.395
14.207	179.600	407.811	145.335	298.758	455.381	3.346	154.003	3.904	-0.555
14.996	182.500	395.521	144.006	294.378	435.321	3.390	157.955	5.089	-0.129
15.787	186.100	397.725	146.520	276.863	446.932	5.066	155.207	3.887	-0.786
16.578	189.400	396.324	147.581	276.356	428.074	5.577	157.500	4.765	-1.466
17.366	192.800	395.615	143.503	274.999	436.041	8.156	157.611	6.734	-0.080
18.153	196.300	399.752	149.315	283.420	439.250	9.510	151.531	8.039	0.050
18.942	199.800	390.246	140.004	267.305	445.600	13.564	156.558	13.844	1.726
19.734	203.900	404.216	148.808	277.027	440.129	25.435	154.856	23.065	4.300
20.523	207.500	393.899	161.646	283.728	444.839	43.199	162.786	41.295	6.284
21.312	211.000	406.820	168.063	301.588	451.858	72.097	165.696	65.688	12.788
22.101	214.600	413.039	179.377	314.221	464.691	114.116	167.183	87.944	17.345
22.892	218.200	412.222	187.103	331.512	481.233	137.766	178.664	107.617	18.539
23.682	221.800	409.803	198.843	335.669	487.540	129.955	187.518	95.195	16.337
24.472	225.900	402.910	189.539	341.788	488.704	99.773	183.293	77.871	12.411
25.261	229.400	403.642	190.523	323.380	474.245	79.528	181.178	55.635	10.880
26.049	232.900	402.856	178.446	316.823	475.156	53.697	185.357	37.448	6.407
26.839	236.400	407.375	169.023	311.851	470.651	37.669	182.999	28.759	2.949
27.625	239.800	415.125	169.638	305.064	468.242	26.713	170.795	21.157	2.228
28.415	243.300	405.172	167.331	295.638	463.464	23.190	176.574	17.307	3.283
29.208	247.200	397.979	160.889	288.141	463.335	22.144	170.728	15.779	1.572
30.001	250.500	402.464	164.520	296.213	459.566	17.839	168.426	15.099	1.205
30.795	253.900	399.833	160.407	287.355	453.407	18.450	169.798	14.127	1.014
31.586	257.200	406.622	158.218	295.460	450.650	17.686	165.077	16.375	1.384
32.377	260.400	405.950	161.086	294.656	458.117	18.490	169.104	14.206	1.145
33.166	264.100	405.382	165.025	285.960	445.570	16.496	161.339	13.808	1.114
33.954	267.300	410.726	156.995	287.662	447.672	15.210	163.539	13.121	1.347
34.743	270.500	409.707	161.414	287.709	446.784	16.814	168.184	13.305	0.783
35.530	273.700	420.049	157.714	273.334	454.682	14.294	165.189	12.828	1.413
36.319	276.800	421.178	155.705	285.335	444.465	15.582	167.435	13.144	0.863
37.107	280.000	432.379	154.486	281.869	455.283	13.502	159.403	13.170	1.244
37.895	283.700	429.967	154.726	278.296	441.449	17.207	163.713	13.209	1.124
38.684	286.900	447.374	149.550	277.081	453.387	15.601	162.151	12.068	0.466
39.474	290.100	452.032	148.516	269.014	449.856	14.531	159.909	12.141	0.805
40.263	293.300	452.978	147.535	275.954	446.007	14.657	158.710	11.939	0.106
41.049	296.400	455.910	141.018	278.862	438.062	13.023	154.319	11.788	1.035
41.836	299.600	462.429	151.366	282.644	439.764	13.569	157.932	11.863	0.511
42.626	303.200	480.795	157.246	272.187	441.120	13.572	156.778	12.425	0.196
43.417	306.300	475.838	147.304	270.276	448.873	13.672	163.650	11.012	0.409
44.207	309.400	479.125	145.486	272.612	450.335	14.383	159.873	10.900	0.187
44.994	312.600	478.958	147.858	274.959	447.976	14.342	156.501	9.599	1.064
45.781	315.700	497.899	150.724	272.732	446.445	12.538	158.646	10.420	1.037
46.572	319.300	493.992	150.530	279.863	443.874	12.022	158.006	10.128	0.285
47.360	322.400	490.566	142.878	266.772	446.740	12.934	164.589	11.279	-0.140
48.152	325.500	481.036	154.303	272.570	438.829	13.905	155.786	11.144	0.725
48.944	328.700	485.770	151.820	266.261	431.624	13.534	160.893	10.148	0.368
49.732	331.800	496.776	152.998	264.180	437.161	10.930	163.574	11.459	1.269
50.521	334.900	491.593	152.625	263.689	453.077	13.002	156.040	11.606	0.750
51.309	338.500	490.605	150.813	264.123	446.048	12.359	164.844	10.804	0.649
52.097	341.600	490.899	143.614	265.649	448.835	14.826	162.582	11.497	0.933
52.886	344.700	500.606	150.198	258.743	447.447	12.426	168.441	11.536	0.685
53.674	347.800	511.161	157.996	267.568	442.334	12.156	169.693	11.481	1.171
54.465	350.900	509.042	150.551	263.029	450.642	12.088	175.224	10.202	1.418
55.256	354.000	508.130	148.295	268.510	443.157	14.883	174.441	12.444	0.787
56.044	357.600	518.560	151.957	262.487	454.441	11.419	173.698	12.580	0.283
56.833	360.600	529.606	152.553	259.577	445.185	12.320	180.641	10.030	0.448
57.626	363.700	516.473	163.703	261.572	447.417	12.781	188.730	10.630	2.023
58.414	366.800	533.142	157.201	267.776	443.622	12.617	185.002	11.330	0.829
59.205	369.900	528.392	159.524	262.202	456.135	12.285	181.128	9.818	0.745
59.996	373.400	523.468	161.507	262.238	454.506	11.865	179.410	10.074	0.519
60.786	376.500	510.063	152.998	261.401	453.080	12.595	186.389	9.208	0.919
61.576	379.600	505.833	155.853	264.902	463.262	13.486	176.448	11.137	0.862
62.368	382.700	508.348	150.179	257.139	448.462	13.542	170.457	10.511	0.655
63.154	385.700	492.721	149.761	256.891	456.842	11.742	174.883	10.499	0.315
63.943	388.800	491.106	148.530	248.980	464.689	13.352	171.409	13.196	0.420
64.733	392.300	483.562	150.024	250.510	472.175	12.076	165.390	10.173	0.674
65.523	395.400	491.515	142.941	261.287	478.262	13.600	169.646	11.162	0.806
66.314	398.500	481.481	150.728	250.473	483.047	11.922	163.081	12.873	0.567
67.103	401.600	481.471	154.641	253.061	493.408	13.301	164.653	11.018	0.396
67.893	404.700	467.210	154.719	261.937	497.143	13.476	163.735	12.529	0.424
68.682	408.100	471.368	147.820	258.939	510.538	12.909	160.476	11.764	0.452
69.471	411.200	472.350	147.115	245.670	508.353	15.764	164.581	11.435	1.305
70.261	414.200	456.541	158.324	245.736	512.539	15.261	162.463	11.161	-0.258
71.051	417.300	462.656	153.367	244.359	536.097	11.902	155.462	11.035	0.358
71.836	420.400	452.333	150.260	250.878	542.236	13.413	163.879	11.044	1.127
72.627	423.500	449.780	154.278	246.575	548.473	11.896	163.879	11.673	-0.161
73.417	427.000	446.998	150.915	250.546	544.265	12.146	159.134	11.292	0.867
74.204	430.100	446.555	154.149	245.415	550.171	12.208	158.162	11.252	2.171
74.996	433.100	454.223	149.019	251.727	550.451	13.354	159.584	11.047	0.868
75.785	436.200	459.405	152.199	244.183	558.984	15.676	160.543	12.376	0.285
76.574	439.300	452.853	153.546	245.679	555.097	14.652	164.100	11.703	1.445
77.365	442.400	459.997	151.583	237.272	544.369	16.651	161.853	11.754	1.365
78.154	445.900	445.237	151.526	244.992	553.604	12.785	162.759	12.503	0.456
78.945	449.000	427.780	152.612	242.286	549.998	16.402	157.864	10.975	0.186
79.731	452.100	450.568	146.830	242.216	549.895	15.242	158.458	12.281	0.084
80.517	455.200	438.930	153.697	238.141	542.844	12.637	156.129	13.319	0.539
81.307	458.300	442.397	149.889	243.390	542.169	15.765	156.071	11.316	1.265
82.098	461.800	431.455	148.880	235.776	543.523	14.393	155.467	12.807	0.817
82.886	464.900	442.537	148.544	238.674	539.918	15.637	150.113	11.847	0.550
83.676	468.000	427.299	150.420	239.182	546.455	15.127	153.800	11.996	0.183
84.462	471.100	429.030	153.024	232.616	532.093	13.278	157.816	12.180	0.980
85.251	474.200	431.961	148.453	232.100	530.505	11.644	153.896	11.783	0.369
86.036	477.300	427.459	150.071	237.630	527.558	12.660	157.855	9.743	-0.386
86.825	480.900	431.068	147.093	234.630	524.777	13.967	151.073	12.630	-0.515
87.614	484.000	426.727	147.220	240.349	525.355	13.370	157.731	10.208	0.631
88.401	487.000	420.275	148.453	237.469	517.183	14.347	156.012	12.301	1.260
89.191	490.100	428.158	147.449	233.613	500.586	15.045	155.799	13.291	0.538
89.980	493.200	416.893	150.563	236.268	503.500	13.825	157.351	12.295	0.645
90.770	496.300	411.423	143.651	235.401	494.840	13.894	155.194	10.604	0.349
91.556	499.800	410.629	147.928	230.885	502.586	14.402	158.278	10.877	1.373
92.342	502.800	428.065	149.575	236.107	504.901	14.099	156.602	10.482	0.773
93.134	505.900	418.039	142.253	228.729	496.575	13.421	156.762	12.620	1.213
93.920	509.000	413.175	146.552	231.441	500.473	13.704	154.348	12.718	0.557
94.710	512.100	417.834	140.324	230.626	493.249	14.269	151.845	12.843	1.258
95.500	515.200	412.077	138.716	226.996	475.846	12.885	154.555	12.855	0.834
96.281	518.200	415.933	145.393	228.345	475.745	14.692	149.479	11.653	0.079
97.069	521.700	421.388	144.070	230.634	483.692	13.083	156.264	12.690	0.492
97.853	524.800	410.648	139.466	228.139	473.646	16.128	152.751	12.414	1.069
98.634	527.900	415.158	143.172	221.022	468.808	14.265	149.284	13.314	1.473
99.425	531.000	405.495	144.753	229.044	469.910	15.245	152.386	11.478	0.885
100.215	534.100	401.166	139.391	224.564	459.856	15.195	145.950	15.040	0.414
101.001	537.100	407.891	143.717	224.340	451.524	12.579	158.501	13.042	1.399
101.790	540.700	393.117	143.182	225.752	458.070	12.500	147.727	13.782	0.830
102.577	543.700	410.527	138.798	227.545	460.861	16.571	150.298	12.546	0.201
103.365	546.800	411.047	141.435	228.472	456.566	15.147	147.997	12.986	1.062
104.154	549.900	409.401	139.291	216.734	459.693	13.535	153.511	11.969	0.868
104.943	553.000	399.930	145.862	221.772	444.360	14.059	153.285	11.814	0.615
105.726	556.000	395.517	142.079	223.813	452.837	13.913	145.822	12.652	0.714
106.513	559.600	407.201	141.363	225.191	452.889	13.520	146.335	12.017	0.819
107.301	562.600	396.821	137.727	224.651	463.402	14.501	149.552	13.414	0.529
108.087	565.700	389.981	139.115	217.549	455.232	16.601	144.871	12.687	0.543
108.876	568.700	395.081	137.047	218.303	448.302	12.992	154.085	13.627	1.160
109.664	571.800	404.934	135.800	221.922	453.850	13.336	151.823	13.006	2.045
110.451	574.900	390.163	142.612	218.929	450.547	14.759	142.450	14.350	1.137
111.238	578.000	391.407	137.000	221.871	450.384	14.874	152.552	13.652	1.398
112.026	581.500	395.490	131.066	216.415	454.375	17.307	153.554	12.495	0.035
112.814	584.600	386.969	139.687	216.503	448.302	13.402	146.023	12.730	1.683
113.602	587.600	393.281	138.593	213.912	452.178	14.841	144.406	15.265	1.428
114.390	590.700	406.200	136.969	210.406	439.281	15.659	145.553	11.766	0.861
115.175	593.800	395.040	136.097	218.102	440.808	13.050	147.843	13.069	1.273
115.959	596.900	379.054	130.018	212.197	450.725	14.603	144.347	12.163	0.554
116.740	599.900	396.957	142.988	217.224	444.505	16.223	148.198	12.145	1.226
117.527	603.500	390.240	139.448	217.774	448.561	15.396	145.274	16.409	0.340
118.316	606.500	395.040	131.659	215.185	444.918	15.982	145.190	13.977	0.331
119.103	609.600	386.237	136.375	213.724	442.096	15.441	148.840	13.527	1.548
119.885	612.700	390.423	137.395	224.756	442.995	12.969	146.739	13.487	1.298
120.666	615.800	394.225	138.656	211.710	438.152	15.597	146.384	16.075	1.336
121.453	618.800	391.224	134.376	208.400	455.775	14.746	144.466	13.047	0.706
122.246	622.400	377.761	134.946	208.587	443.247	15.258	145.661	13.103	1.428
123.034	625.500	392.910	130.052	214.518	454.353	16.817	145.054	13.461	0.709
123.820	628.500	385.124	134.376	204.361	441.278	15.059	144.606	13.099	1.387
124.610	631.600	394.561	137.911	211.637	444.645	16.029	143.309	15.780	1.493
125.402	634.600	389.676	136.216	211.370	438.768	13.198	144.576	12.443	0.781
126.190	637.700	383.309	134.326	211.974	441.424	14.216	144.804	12.441	1.172
126.980	641.200	382.292	139.792	208.660	437.768	16.372	146.407	14.371	0.636
127.768	644.300	389.694	134.938	210.641	435.688	16.046	144.700	14.125	1.197
128.560	647.400	388.820	137.251	206.699	448.971	15.578	143.337	11.773	2.227
129.350	650.500	381.747	132.630	211.212	443.281	15.202	143.178	12.958	0.531
130.136	653.600	376.240	135.305	208.168	451.147	16.378	143.552	14.097	1.787
130.923	656.600	378.103	135.724	207.555	443.188	13.279	141.507	13.118	0.232
131.711	660.100	381.588	138.031	213.746	452.729	15.677	142.854	11.880	1.459
132.503	663.100	383.415	137.418	205.076	450.791	15.875	141.683	13.187	0.680
133.292	666.200	386.612	137.526	211.670	450.031	15.372	145.790	15.434	0.773
134.079	669.300	382.209	135.772	214.381	447.731	15.632	145.069	12.589	0.276
134.866	672.400	377.657	137.880	209.244	455.570	14.583	142.704	12.834	1.306
135.656	675.500	387.187	140.096	209.513	456.361	15.514	144.433	13.646	0.965
136.447	679.000	372.815	126.386	201.557	447.905	13.690	146.416	13.312	0.789
137.235	682.100	389.767	130.550	199.969	446.022	15.810	152.144	12.562	1.157
138.030	685.100	377.502	139.477	198.196	449.728	15.566	145.426	13.314	1.424
138.818	688.200	375.721	139.522	210.700	458.058	14.279	146.630	13.866	1.248
139.609	691.300	379.414	132.703	204.214	454.053	15.367	138.030	11.765	1.744
140.401	694.900	375.223	135.416	204.662	456.437	15.732	142.516	13.137	0.618
141.190	698.000	378.002	138.456	207.139	453.717	17.921	144.483	13.087	2.482
141.978	701.100	390.161	133.208	201.900	463.180	16.105	142.808	13.844	1.569
142.768	704.200	380.956	137.527	201.604	459.913	15.674	144.463	12.623	1.138
143.556	707.300	374.651	138.662	199.761	455.260	13.875	145.984	13.783	0.104
144.345	710.400	382.195	134.057	193.748	459.061	15.838	147.133	12.773	1.655
145.136	713.900	376.244	133.583	210.285	458.090	16.685	139.737	13.244	2.482
145.924	717.000	374.177	131.197	203.311	455.382	14.080	143.667	14.075	1.710
146.712	720.100	378.531	132.711	198.524	458.342	13.364	148.465	14.331	1.028
147.501	723.200	376.787	131.978	205.986	454.279	15.966	145.677	12.097	1.288
148.289	726.200	372.537	135.389	202.547	454.479	15.053	144.440	12.665	1.211
149.079	729.300	377.076	133.176	199.531	466.288	13.998	140.699	13.697	1.391
149.866	732.700	388.045	133.871	200.969	454.366	15.187	144.207	12.499	0.949
150.651	735.800	383.013	136.311	200.073	464.913	13.449	142.754	12.190	1.222
151.440	738.800	385.379	134.288	207.913	459.712	15.029	139.321	14.157	2.060
152.228	741.900	378.357	133.111	203.085	457.296	15.709	151.651	12.748	1.192
153.017	745.000	377.314	130.201	203.973	446.996	15.529	138.929	14.648	1.408
153.805	748.000	369.785	131.932	206.845	451.974	15.453	137.920	13.980	0.759
154.596	751.500	380.742	135.205	203.214	451.803	16.528	138.328	14.053	1.209
155.384	754.600	374.059	137.411	202.355	456.377	15.083	143.123	12.474	0.592
156.172	757.700	369.042	135.228	204.219	455.049	15.516	143.779	13.149	0.995
156.961	760.800	364.728	133.378	196.885	448.989	17.725	145.154	15.852	1.279
157.749	763.900	378.190	135.614	199.051	453.216	15.961	141.609	14.459	0.684
158.538	767.400	386.168	140.891	201.080	454.727	14.104	144.996	13.930	0.345
159.332	770.500	372.406	134.661	198.391	447.280	15.319	148.819	14.903	0.884
160.120	773.600	376.917	125.431	196.997	455.196	13.974	138.915	14.348	0.834
160.909	776.600	367.154	136.195	202.624	450.111	14.856	144.483	14.081	0.741
161.699	779.700	363.221	132.086	205.370	453.368	14.293	145.264	13.906	0.389
162.491	782.700	375.775	137.070	203.116	446.772	15.767	138.540	13.730	0.791
163.278	786.200	372.265	130.593	207.424	452.955	13.946	140.672	14.141	0.447
164.069	789.300	375.804	138.051	196.443	457.380	13.255	143.666	12.909	0.784
164.859	792.300	379.681	132.887	203.019	457.324	18.027	143.338	12.994	1.184
165.650	795.400	376.512	135.919	196.589	445.159	15.170	145.500	11.533	1.380
166.440	798.400	387.380	130.769	198.003	454.545	15.470	148.472	15.107	1.179
167.224	801.500	378.338	134.687	202.124	474.451	14.806	145.192	15.133	0.986
168.014	805.000	384.892	137.925	199.754	461.710	17.124	143.686	15.085	0.367
168.805	808.100	374.398	133.148	197.841	464.500	13.710	142.353	13.277	1.065
169.597	811.200	379.782	130.031	206.705	457.388	17.076	145.320	10.670	1.748
170.388	814.300	373.864	138.161	198.479	468.405	14.995	140.170	12.656	0.889
171.173	817.400	370.993	132.285	209.066	469.316	15.191	142.239	14.231	0.829
171.964	820.900	372.135	135.339	207.127	476.573	14.458	141.546	13.601	0.969
172.754	823.900	369.550	141.983	203.826	454.462	16.640	139.391	13.503	1.098
173.540	827.000	376.391	130.314	197.441	471.674	17.013	143.985	12.113	0.875
174.333	830.100	377.161	136.243	203.087	464.740	13.860	144.294	12.165	-0.023
175.122	833.100	370.813	144.147	197.406	481.176	14.130	148.881	12.250	1.187
175.910	836.100	376.066	127.837	201.948	467.635	15.611	143.679	13.234	1.072
176.696	839.600	371.865	136.241	195.529	477.999	14.546	144.591	13.307	1.563
177.481	842.700	362.319	135.749	198.521	489.119	16.561	144.022	12.527	1.300
178.269	845.800	373.246	139.573	209.515	489.074	14.175	142.420	13.855	1.285
179.058	848.900	367.691	135.259	205.201	483.288	13.817	145.120	12.723	0.526
179.847	852.000	381.626	132.286	211.144	496.493	15.053	145.616	15.439	1.960
180.634	855.100	372.993	136.942	204.152	496.945	14.312	148.274	14.430	1.902
181.422	858.600	376.102	137.680	202.389	480.123	14.974	142.348	13.988	1.424
182.213	861.700	364.674	136.167	202.198	486.799	13.753	147.066	14.222	1.088
183.002	864.800	370.488	139.533	202.174	489.658	14.687	146.108	13.532	0.775
183.789	867.900	377.971	136.960	201.625	473.460	14.099	148.276	14.043	0.474
184.580	871.000	367.628	135.803	207.165	487.620	15.704	144.784	15.610	1.034
185.372	874.100	374.681	137.779	198.458	495.762	13.459	142.129	13.746	1.223
186.162	877.600	373.185	134.628	204.427	482.592	14.233	144.232	12.689	1.447
186.948	880.700	381.241	129.444	197.737	474.532	13.769	142.492	14.218	0.652
187.738	883.900	370.685	139.658	208.184	476.926	15.429	147.547	12.174	1.052
188.528	887.000	380.889	137.223	206.426	470.165	14.611	148.751	12.902	1.285
189.318	890.000	373.159	137.115	206.184	463.714	17.430	143.995	16.152	0.327
190.109	893.500	367.522	132.895	210.617	475.776	15.233	140.173	13.121	1.456
190.899	896.500	380.431	138.657	200.962	478.890	16.265	145.371	14.601	0.970
191.685	899.600	377.960	133.640	197.077	471.963	12.304	141.251	13.383	0.931
192.475	902.700	374.522	132.296	202.516	471.477	17.549	149.167	13.321	0.709
193.264	905.700	358.851	137.139	209.805	471.602	15.955	146.531	14.253	1.436
194.049	908.800	374.374	136.758	208.023	458.548	14.964	144.956	13.375	0.826
194.837	912.300	361.496	135.728	203.203	473.002	14.099	143.532	11.608	1.056
195.629	915.400	374.537	134.258	202.629	472.959	13.366	145.438	11.353	1.638
196.417	918.500	371.965	137.353	205.627	479.189	14.987	149.509	12.119	0.510
197.206	921.500	366.954	135.307	214.069	467.534	16.186	141.111	14.304	1.476
197.995	924.500	377.052	134.012	206.866	476.155	16.158	143.043	12.017	1.345
198.784	927.600	376.265	141.066	213.186	468.139	13.189	150.327	12.951	1.295
199.574	931.100	374.178	135.844	212.743	472.931	15.794	138.661	11.748	0.686
200.365	934.200	370.691	130.179	209.190	460.590	14.905	141.391	13.094	1.103
201.156	937.200	371.287	140.970	204.518	461.392	14.862	140.265	13.272	0.289
201.946	940.200	368.372	135.045	208.863	467.854	16.680	146.672	13.718	-0.033
202.736	943.200	367.827	132.983	207.002	472.001	13.918	140.924	12.082	1.292
203.524	946.300	375.829	128.334	208.145	465.815	14.196	141.409	13.458	0.104
204.313	949.900	380.103	134.685	209.787	459.455	13.874	141.689	12.853	0.309
205.097	953.000	367.826	134.901	210.655	466.123	13.783	144.955	14.878	1.222
205.886	956.000	369.186	138.744	207.091	463.325	14.056	145.855	14.187	0.792
206.675	959.000	372.685	134.407	209.371	447.394	14.150	148.891	14.342	0.868
207.465	962.100	371.693	134.169	204.106	459.472	15.574	145.317	11.455	0.618
208.254	965.600	362.924	130.298	208.532	458.417	15.422	140.673	12.726	1.298
209.041	968.700	368.654	132.340	215.284	453.214	13.849	149.085	13.976	0.649
209.830	971.700	373.738	138.140	217.998	455.946	17.599	144.545	14.419	0.597
210.621	974.700	378.716	138.274	215.828	453.669	14.966	146.240	13.889	2.215
211.410	977.800	386.871	133.550	212.693	449.817	14.809	146.764	12.974	1.498
212.199	981.000	357.668	132.990	218.482	441.156	14.254	146.375	14.338	0.619
212.993	984.500	382.734	132.435	217.908	449.846	16.259	148.126	12.274	0.725
213.782	987.600	378.043	138.896	213.684	455.479	15.156	145.182	12.094	-0.020
214.570	990.600	374.602	138.105	211.468	460.424	16.064	147.930	12.037	0.468
215.360	993.800	389.567	135.016	216.060	445.757	15.674	148.016	12.706	0.849
216.153	996.900	370.628	132.764	219.332	451.837	12.828	146.548	13.228	2.336
216.942	1000.400	373.338	130.235	213.577	449.954	15.570	149.750	12.592	2.040
217.736	1003.500	375.721	132.227	220.918	450.459	14.737	145.759	12.096	1.550
218.527	1006.500	370.885	135.625	214.079	446.217	13.244	144.511	15.770	1.005
219.317	1009.600	375.600	140.721	218.615	457.074	13.973	145.382	12.606	-0.057
220.103	1012.700	361.470	136.597	216.433	446.129	15.126	145.158	11.992	0.467
220.893	1015.700	374.760	134.510	222.287	446.277	14.223	150.627	12.345	0.759
221.683	1019.200	368.241	136.700	219.124	446.792	15.631	141.188	11.433	1.283
222.472	1022.300	362.126	131.420	222.738	440.434	15.822	143.295	16.071	0.167
223.260	1025.400	379.834	138.394	216.078	440.157	15.879	148.665	14.071	0.836
224.047	1028.400	377.330	137.762	218.992	453.507	14.837	144.382	11.434	-0.023
224.839	1031.500	372.211	135.280	224.526	444.911	14.806	148.076	15.629	-0.205
225.627	1034.600	373.779	130.305	214.128	448.770	13.646	147.652	13.703	1.464
226.417	1038.200	370.706	135.419	217.514	441.610	14.769	147.061	13.152	0.554
227.205	1041.300	367.635	135.163	222.190	453.765	14.946	143.525	14.168	0.364
227.992	1044.300	361.913	136.356	220.173	454.892	14.163	142.708	12.800	0.583
228.781	1047.400	368.060	137.427	227.702	460.202	13.583	147.916	15.742	0.351
229.569	1050.500	373.626	136.259	225.149	447.751	16.331	152.736	14.850	0.971
230.357	1053.700	371.601	138.584	227.013	449.075	13.802	146.942	12.320	0.838
231.146	1057.200	383.080	135.658	219.860	447.948	14.010	140.592	12.167	1.074
231.936	1060.200	376.607	133.119	236.946	454.059	14.343	150.268	12.108	0.963
232.728	1063.200	375.397	141.811	216.977	457.757	15.260	145.140	13.458	1.700
233.516	1066.300	376.557	139.501	230.949	454.527	13.985	149.784	12.574	0.989
234.304	1069.300	378.027	135.968	228.308	458.211	14.014	149.269	11.655	1.050
235.094	1072.900	373.893	137.700	229.045	453.339	14.495	148.459	13.023	0.667
235.882	1076.000	363.033	139.865	232.417	459.417	16.279	146.252	13.254	1.179
236.673	1079.000	372.682	140.835	235.471	451.216	13.050	143.089	13.057	1.296
237.462	1082.100	374.559	140.098	239.164	460.372	13.142	150.462	13.576	1.142
238.250	1085.200	367.418	140.806	234.198	468.324	14.403	146.476	13.877	0.239
239.040	1088.300	368.549	140.312	233.191	464.625	14.421	151.241	14.186	0.686
239.829	1091.800	372.523	141.339	235.590	466.036	15.987	142.809	16.334	1.506
240.620	1094.700	370.246	145.065	242.221	450.925	13.234	143.866	14.147	0.342
241.410	1097.800	378.359	136.548	234.085	470.164	15.659	149.260	11.974	0.667
242.198	1100.900	360.420	139.539	234.714	459.834	12.665	151.096	12.922	0.449
242.986	1104.100	371.939	145.107	239.289	469.882	16.103	147.207	12.522	0.773
243.776	1107.200	372.419	138.369	238.324	471.132	14.216	148.455	12.871	1.083
244.565	1110.500	374.414	143.747	245.346	469.816	15.094	155.599	12.726	0.991
245.350	1113.500	373.844	142.019	239.402	462.743	13.221	148.833	13.079	1.071
246.140	1116.700	361.227	136.822	230.924	482.414	17.753	146.446	13.173	0.128
246.930	1119.900	376.782	141.634	234.781	476.442	15.867	143.388	14.077	0.739
247.720	1122.900	372.429	144.210	240.629	468.139	16.177	148.091	13.487	-0.195
248.511	1126.300	373.090	142.251	237.087	473.623	15.282	148.164	11.953	0.729
249.299	1129.400	363.937	142.104	238.340	487.493	12.924	152.167	12.089	1.041
250.090	1132.600	377.471	143.748	245.512	476.926	14.433	145.852	12.952	0.549
250.880	1135.700	379.516	138.894	250.949	487.097	18.034	145.916	13.948	0.338
251.669	1138.600	367.757	136.598	240.445	497.269	15.020	152.107	12.548	2.016
252.460	1141.500	374.818	140.697	252.187	487.055	13.869	150.030	12.531	0.204
253.250	1145.000	377.658	138.870	240.835	485.632	13.762	151.767	13.899	0.975
254.039	1148.200	372.067	140.119	247.617	508.915	14.859	147.164	13.929	0.761
254.827	1151.300	372.950	135.380	249.892	492.214	15.782	147.945	13.067	1.153
255.617	1154.300	380.158	140.975	249.334	496.734	16.345	156.617	13.571	0.537
256.405	1157.300	364.803	143.543	247.327	505.214	15.677	147.313	13.475	1.050
257.195	1160.400	361.337	138.672	247.089	514.919	14.265	154.385	11.852	-0.002
257.983	1164.000	379.347	140.935	249.798	505.636	14.088	147.993	14.367	0.541
258.771	1167.100	363.264	150.147	258.151	533.359	15.192	154.251	14.093	0.742
259.558	1170.100	368.058	149.005	249.823	532.572	17.250	151.880	14.529	0.513
260.349	1173.100	371.252	145.690	256.319	543.883	15.674	154.081	13.383	1.387
261.137	1176.200	367.188	146.601	246.694	545.009	14.899	148.464	13.240	1.168
261.929	1179.700	377.311	140.903	243.916	553.649	14.979	143.408	13.924	0.112
262.718	1182.800	364.691	147.588	258.799	568.778	16.492	154.758	13.504	1.373
263.508	1185.800	370.823	146.991	255.300	586.361	17.345	150.927	12.785	0.933
264.299	1188.900	373.541	149.873	258.690	577.587	13.531	153.710	13.745	0.836
265.086	1192.100	377.921	148.671	254.368	568.501	14.996	153.744	11.547	1.312
265.874	1194.800	369.975	147.823	250.742	535.097	13.636	148.988	13.433	1.159
266.661	1196.500	376.617	144.838	255.789	537.750	13.146	157.769	14.069	0.146
267.451	1197.000	370.689	151.203	259.884	572.688	15.047	158.081	16.378	1.447
268.239	1197.700	362.948	152.780	257.524	561.823	14.782	156.465	13.757	0.759
269.028	1198.900	374.667	145.683	244.297	549.541	12.715	154.097	14.404	0.627
269.820	1199.600	368.979	151.648	259.832	549.666	15.473	154.659	12.850	0.925
270.606	1199.600	370.232	145.230	261.245	560.132	13.698	152.443	12.972	1.776
