Fri, Mar 25, 2016	12:34 PM
 Notes: 
 waiting time: 30.000
 time(s)	 temp (K)	 MS1=2.085	 MS2=15.166	 MS3=17.074	 MS4=26.712	 MS5=41.148	 MS6=42.035	 MS7=42.992	 MS8=57.407
0.000	169.900	394.664	172.992	239.706	657.539	101.765	216.095	90.886	15.993
0.791	169.900	408.794	185.696	232.469	663.853	102.882	215.031	89.706	17.093
1.578	169.900	405.638	187.712	233.946	651.495	104.250	218.078	88.969	16.573
2.365	169.900	391.320	190.864	232.220	664.034	101.709	218.246	90.724	16.839
3.153	169.900	393.185	193.249	239.660	658.378	106.032	220.324	96.117	17.277
3.943	169.800	399.440	189.165	237.486	648.558	102.705	216.263	100.309	15.971
4.734	169.800	405.071	190.678	236.146	656.080	104.981	216.461	96.675	16.659
5.525	169.800	394.803	194.170	228.220	655.385	108.315	219.794	99.034	17.516
6.315	169.800	403.298	189.435	236.470	664.915	112.018	215.449	95.185	19.509
7.107	169.900	402.165	183.832	244.613	662.243	118.086	217.629	98.827	19.262
7.893	170.000	404.735	191.621	248.936	657.725	112.863	223.040	105.232	18.503
8.683	170.400	402.341	198.123	253.140	692.904	122.614	223.745	111.135	22.700
9.470	171.200	406.549	195.517	258.770	705.020	132.378	215.892	118.798	20.422
10.262	172.300	412.707	200.497	279.140	711.875	141.586	228.030	123.895	22.410
11.048	174.000	402.024	202.060	274.395	700.246	157.687	220.746	134.839	25.593
11.834	176.400	402.235	214.432	277.796	693.475	168.886	231.429	148.351	31.634
12.621	179.000	410.509	214.575	295.945	702.645	189.886	232.314	168.444	34.528
13.407	181.900	410.822	222.609	296.446	709.408	219.932	237.104	194.233	39.461
14.196	184.900	420.656	237.761	305.508	708.767	238.704	255.456	207.236	41.822
14.986	188.100	418.805	247.114	311.153	711.596	260.155	253.665	219.293	47.627
15.780	191.400	415.083	250.845	305.801	725.961	276.915	253.364	247.485	49.275
16.570	195.300	426.844	263.034	314.803	711.066	299.686	256.428	259.191	56.452
17.359	198.800	435.154	272.074	323.408	747.886	343.622	261.169	316.037	64.069
18.149	202.400	426.674	290.939	332.026	756.995	395.014	287.789	382.628	79.146
18.941	205.900	437.468	309.025	351.282	774.105	499.161	300.104	485.504	103.430
19.730	209.600	449.149	361.968	368.111	816.058	666.174	315.004	634.109	140.031
20.520	213.700	476.075	411.132	422.051	874.752	866.401	343.624	785.998	166.286
21.311	217.300	483.439	477.664	466.412	924.677	987.791	365.701	882.596	188.365
22.098	220.900	488.509	495.329	467.236	927.419	934.364	373.231	765.348	155.317
22.886	224.400	468.703	450.667	435.569	901.372	762.283	343.716	631.861	128.810
23.674	227.900	464.317	398.562	417.945	867.240	613.253	330.674	513.279	107.483
24.462	231.500	450.812	369.730	398.244	853.183	512.228	325.102	441.863	90.995
25.252	235.500	463.153	342.544	363.404	821.621	452.581	309.300	385.956	77.290
26.043	238.900	443.720	325.118	352.385	809.000	401.022	300.903	345.855	70.468
26.835	242.400	455.734	333.540	344.254	783.767	378.680	306.618	329.591	68.194
27.622	245.800	460.630	333.911	327.464	792.981	362.131	297.780	311.824	61.040
28.413	249.200	472.207	322.563	324.886	792.832	339.150	291.853	296.020	59.913
29.199	252.500	477.552	328.986	324.256	775.173	332.148	297.362	285.100	61.530
29.991	256.300	481.919	334.821	315.685	781.464	316.030	288.611	280.523	57.405
30.779	259.600	505.884	341.761	306.556	759.167	310.240	285.621	270.893	55.149
31.570	262.900	519.543	326.404	313.367	757.198	307.715	286.624	268.470	51.823
32.361	266.200	538.249	327.434	309.489	738.609	294.909	278.427	257.102	48.752
33.149	269.400	556.620	313.968	308.988	757.387	277.790	280.088	253.118	49.022
33.940	273.100	582.399	301.982	299.030	748.075	274.090	275.287	238.935	47.031
34.729	276.400	587.832	273.094	300.621	745.099	274.678	272.051	235.836	48.247
35.519	279.600	620.715	274.421	296.769	735.821	263.886	267.098	237.153	44.274
36.311	282.800	625.149	269.666	300.578	746.265	263.797	266.041	226.019	43.105
37.100	286.000	639.410	264.547	288.353	743.117	258.612	267.367	224.173	45.854
37.890	289.200	642.478	260.838	277.590	741.695	252.109	267.307	224.553	48.622
38.681	292.800	644.924	264.591	286.674	737.159	253.053	266.681	225.886	45.882
39.471	296.000	653.423	248.522	284.330	723.356	249.807	265.077	220.259	45.895
40.261	299.100	654.144	248.661	277.522	737.122	244.632	265.625	217.397	39.315
41.052	302.200	653.925	252.682	279.841	729.673	229.366	257.816	210.231	40.718
41.841	305.300	650.354	248.623	282.804	719.904	236.283	271.799	209.119	42.973
42.630	308.800	656.991	259.163	275.624	729.594	232.158	266.110	197.097	39.837
43.418	312.000	648.636	247.085	285.730	712.769	231.736	261.245	201.310	38.409
44.204	315.100	649.666	248.968	271.068	721.416	229.939	257.735	198.607	40.138
44.992	318.200	653.736	246.786	269.222	715.833	224.838	267.133	200.011	39.706
45.785	321.300	658.473	252.141	268.001	716.491	217.461	254.185	196.868	39.438
46.576	324.400	643.804	248.421	278.064	726.988	218.207	258.850	188.466	38.395
47.366	328.000	637.340	243.841	271.013	714.210	214.012	256.018	190.890	37.122
48.152	331.100	622.385	245.177	271.331	710.486	214.260	256.747	193.660	38.089
48.938	334.200	604.807	250.933	260.174	712.783	212.764	256.044	187.176	37.196
49.729	337.300	612.325	243.502	267.693	711.830	211.263	259.515	186.753	38.014
50.515	340.400	608.435	239.583	264.434	714.907	214.853	257.248	184.968	36.118
51.308	343.500	607.950	240.074	266.307	707.173	203.929	261.731	186.538	32.696
52.096	347.000	597.293	239.575	264.350	710.834	203.460	254.804	180.233	34.329
52.885	350.100	594.874	238.291	255.326	717.394	207.291	262.051	177.260	34.837
53.675	353.200	592.330	243.512	263.765	705.485	203.827	267.930	179.559	32.843
54.462	356.300	580.937	231.468	261.250	711.426	195.858	270.308	182.650	31.765
55.252	359.300	585.059	237.689	256.460	706.071	197.543	269.737	180.582	34.351
56.040	362.400	578.775	242.601	248.968	708.405	200.277	270.383	173.085	33.779
56.828	365.900	579.365	235.052	241.435	707.743	198.506	277.078	174.411	34.874
57.616	369.000	565.607	236.849	253.404	712.367	191.576	277.133	173.519	34.120
58.404	372.100	554.871	232.487	250.187	706.518	189.423	263.678	173.441	32.231
59.194	375.200	551.171	241.123	255.731	733.672	188.947	270.305	174.376	33.648
59.982	378.200	538.528	236.307	248.863	716.561	190.246	268.132	165.478	31.262
60.772	381.800	543.502	240.563	251.839	728.411	187.389	265.480	163.517	30.428
61.562	384.800	536.404	238.713	246.314	747.102	183.743	264.052	168.575	32.363
62.353	387.900	525.813	232.104	253.528	751.944	190.247	266.501	165.958	31.454
63.142	391.000	522.228	232.182	243.653	767.129	189.623	254.724	164.519	29.695
63.929	394.000	527.213	240.547	252.118	786.793	189.090	252.350	167.423	30.081
64.720	397.100	513.791	224.641	245.822	806.061	179.133	260.121	163.440	32.440
65.510	400.700	526.336	237.083	246.192	827.024	181.906	264.252	163.848	30.515
66.301	403.900	513.891	235.580	245.428	855.352	180.762	255.213	156.374	32.054
67.092	407.100	507.613	236.810	242.188	851.962	185.724	252.098	166.504	30.001
67.882	410.200	504.110	237.339	240.273	881.736	175.314	258.026	154.967	29.868
68.672	413.300	503.841	246.740	246.945	907.654	178.438	253.785	161.482	32.980
69.462	416.400	502.294	238.879	242.333	921.904	170.945	254.764	154.805	31.444
70.252	419.900	499.521	231.262	235.050	950.310	178.405	247.592	155.766	30.347
71.042	422.900	502.214	228.805	240.283	965.864	173.877	249.960	159.487	30.861
71.831	426.000	500.339	235.478	243.719	987.546	177.490	251.938	154.751	31.723
72.620	429.100	506.198	231.490	245.107	1000.415	171.360	255.883	155.412	30.254
73.410	432.100	499.519	236.143	244.558	1015.136	171.663	251.434	156.416	32.817
74.201	435.600	492.380	248.992	234.157	1021.059	173.386	248.701	151.689	27.465
74.991	438.700	488.035	245.406	239.855	1037.388	170.983	250.922	154.777	30.182
75.777	441.800	496.606	243.589	239.617	1054.303	163.961	245.338	149.408	28.945
76.568	444.800	499.834	243.983	237.745	1078.893	172.509	247.698	152.948	30.084
77.357	447.900	489.046	252.402	235.235	1062.129	166.273	247.872	145.565	27.917
78.142	450.900	492.903	245.220	242.273	1079.221	166.247	248.830	151.227	29.589
78.932	454.400	483.996	245.478	237.622	1091.552	162.285	245.465	147.972	28.228
79.723	457.500	486.451	248.106	243.027	1080.026	165.190	245.469	146.499	29.609
80.512	460.600	495.643	256.806	235.688	1086.618	169.662	248.058	146.797	28.356
81.300	463.600	492.322	255.277	236.962	1091.679	163.581	243.751	143.069	27.965
82.091	466.700	481.812	239.848	231.416	1081.844	160.771	246.416	146.620	27.776
82.879	469.700	488.176	238.089	235.573	1074.138	160.173	243.753	142.955	30.210
83.669	473.200	481.839	235.459	238.529	1060.357	155.420	245.097	144.647	26.940
84.458	476.200	494.863	249.349	237.173	1031.422	165.276	240.617	145.401	26.544
85.249	479.300	478.067	237.387	230.511	1023.474	158.662	242.968	142.609	27.835
86.040	482.300	476.942	241.941	231.309	998.424	161.327	236.074	144.485	26.164
86.829	485.300	469.242	230.854	231.283	963.726	163.215	237.961	140.854	29.613
87.618	488.800	474.225	234.272	231.907	934.682	161.007	241.460	140.283	27.290
88.410	491.900	469.276	232.025	233.018	910.280	163.528	246.304	144.788	27.619
89.194	494.900	479.107	227.544	232.392	895.657	161.295	240.312	141.509	28.600
89.981	498.000	473.819	222.064	232.804	871.108	161.275	243.656	140.218	26.655
90.767	501.100	470.964	229.141	229.442	862.780	158.837	243.635	143.063	28.571
91.551	504.100	473.992	220.077	238.341	825.019	163.320	241.128	138.774	25.161
92.343	507.700	475.559	224.475	229.946	792.708	152.394	245.660	140.680	28.161
93.132	510.700	476.091	211.331	232.047	802.792	160.420	246.223	141.890	27.128
93.920	513.800	462.848	222.088	229.648	785.900	153.441	243.427	140.456	25.809
94.707	516.900	459.928	225.592	227.935	783.284	155.885	241.831	144.329	27.635
95.497	520.000	477.153	214.966	233.359	765.325	157.698	239.296	135.684	28.059
96.286	523.100	460.918	223.433	230.836	767.484	158.217	239.924	140.077	26.944
97.072	526.600	474.740	220.318	233.128	748.081	162.006	244.043	143.616	27.764
97.860	529.700	473.133	219.491	235.204	744.622	157.192	245.033	136.010	27.907
98.647	532.900	474.663	209.832	230.840	740.259	159.986	237.694	140.116	27.747
99.436	536.000	464.163	215.162	234.095	729.341	158.470	253.060	135.385	27.491
100.227	539.100	455.532	208.156	227.290	732.361	159.206	245.723	140.588	27.166
101.015	542.200	460.599	219.527	239.215	735.191	160.149	243.376	142.436	28.749
101.803	545.700	463.074	215.735	231.028	728.462	161.222	248.324	148.096	27.627
102.594	548.800	465.338	208.919	237.779	728.009	162.882	246.843	148.376	26.941
103.380	551.900	438.484	220.306	232.641	721.934	160.646	249.805	140.548	25.677
104.169	554.900	458.978	215.694	244.147	721.068	162.875	249.218	149.566	27.867
104.955	558.000	448.924	215.810	238.945	742.363	165.603	246.920	146.487	29.415
105.744	561.100	460.302	225.290	239.184	746.965	171.234	243.530	150.560	30.201
106.532	564.600	465.463	219.205	234.416	746.104	167.315	246.833	152.421	29.292
107.321	567.800	452.472	207.628	235.305	743.871	164.968	253.238	150.619	32.649
108.111	570.900	465.042	214.087	232.888	740.665	170.892	245.145	152.165	31.161
108.899	573.900	451.450	219.644	240.848	730.701	174.459	251.220	150.750	28.792
109.686	577.000	441.400	212.702	242.175	745.165	175.721	252.474	154.613	30.998
110.474	580.000	451.736	212.098	234.128	725.978	176.685	246.716	159.177	31.136
111.263	583.100	440.230	223.404	243.307	723.829	178.361	251.621	153.500	30.788
112.054	586.600	458.783	214.912	239.874	737.931	173.809	248.576	154.828	31.799
112.843	589.600	452.459	216.874	246.196	731.848	171.009	249.873	150.925	30.572
113.633	592.700	440.684	219.272	233.534	734.348	175.448	251.704	160.105	30.206
114.421	595.700	456.431	227.711	243.307	732.929	173.567	254.609	155.541	28.963
115.213	598.800	438.530	219.869	238.117	724.693	177.429	253.960	154.683	31.245
116.002	602.300	443.312	217.868	240.786	736.945	176.461	253.914	152.605	32.926
116.790	605.500	444.777	218.980	235.424	730.490	174.772	248.022	148.997	32.065
117.578	608.700	446.679	216.020	235.808	723.351	175.990	246.231	150.486	28.431
118.367	611.900	457.907	217.926	243.355	722.557	175.515	246.264	161.632	30.685
119.156	615.100	435.000	217.094	248.687	719.581	177.384	240.744	152.879	29.898
119.947	618.200	437.172	217.367	244.710	720.199	171.610	251.639	149.482	29.544
120.737	621.700	437.034	215.717	240.848	733.151	172.786	240.823	148.972	28.676
121.525	624.700	434.999	219.270	249.573	737.008	169.817	247.063	153.486	27.808
122.314	627.800	438.358	220.706	240.822	728.256	158.174	249.325	145.344	30.221
123.102	630.900	446.789	219.797	245.696	735.858	162.673	245.877	141.491	25.496
123.892	634.000	432.105	213.533	235.478	720.630	163.410	244.167	140.690	27.605
124.679	637.000	429.678	204.045	240.060	711.118	158.518	249.242	148.138	29.413
125.468	640.500	420.246	217.845	242.156	715.431	158.350	242.611	148.249	25.738
126.259	643.600	429.284	211.784	235.015	726.759	158.222	242.139	144.165	26.181
127.050	646.600	436.870	209.287	241.998	718.844	152.276	237.428	137.303	27.558
127.838	649.700	436.099	213.772	239.921	721.683	149.047	245.342	140.341	27.000
128.630	652.700	417.710	204.739	242.909	701.016	149.784	240.370	135.049	26.176
129.418	656.300	436.767	207.309	244.598	709.524	146.718	247.164	129.269	26.968
130.202	659.300	411.811	208.816	239.655	714.011	145.231	241.554	131.647	26.684
130.993	662.400	419.165	206.549	243.970	724.071	146.241	234.422	133.125	27.248
131.784	665.500	421.809	204.668	242.138	731.612	142.371	246.052	134.266	25.805
132.574	668.500	412.455	209.997	242.649	717.540	143.077	245.382	130.862	23.735
133.361	671.500	404.408	206.359	245.693	724.127	145.248	245.357	129.773	23.498
134.150	675.000	417.689	208.236	244.965	714.241	143.676	234.953	131.966	24.733
134.937	678.000	417.696	208.525	241.255	719.882	141.732	235.436	126.395	22.887
135.723	681.000	409.868	211.185	244.747	717.972	143.783	235.683	125.891	22.649
136.509	684.100	418.947	202.489	238.690	713.584	131.633	235.129	122.969	25.181
137.295	687.100	403.715	204.992	246.343	715.780	140.662	240.242	121.015	25.692
138.075	690.200	416.944	199.581	245.304	712.321	133.389	244.807	120.232	24.705
138.861	693.200	409.932	197.339	240.495	715.894	134.216	245.034	118.781	22.685
139.648	696.700	406.251	205.340	245.229	717.282	132.286	239.474	120.564	23.850
140.435	699.700	410.571	196.491	242.788	710.941	138.475	242.337	119.770	22.037
141.227	702.700	425.077	202.207	248.699	713.778	133.668	245.349	119.227	20.606
142.017	705.700	405.512	201.328	244.083	708.433	132.782	232.024	116.253	23.317
142.803	708.800	404.129	196.245	245.149	715.950	131.506	240.417	116.850	23.991
143.592	711.900	397.936	201.058	242.878	709.037	128.694	238.176	115.257	21.548
144.382	715.400	404.380	198.291	237.980	701.989	131.526	237.247	117.475	23.034
145.172	718.600	418.319	197.838	251.518	725.699	128.246	236.228	119.157	23.384
145.956	721.700	411.633	197.889	249.950	698.450	126.811	231.013	115.698	20.992
146.745	724.800	403.126	205.458	249.772	708.082	127.936	240.230	116.774	21.172
147.533	727.900	404.997	197.519	250.941	712.335	131.053	238.028	113.572	22.647
148.319	731.000	402.529	194.484	250.993	698.304	134.382	237.610	111.950	23.700
149.107	734.500	400.252	196.801	243.035	699.241	124.836	234.692	113.461	22.110
149.896	737.600	399.964	202.067	254.253	716.410	128.037	245.184	108.621	22.277
150.681	740.700	400.509	196.091	248.503	699.312	122.941	234.691	110.291	21.613
151.470	743.800	394.016	199.825	246.817	697.924	132.193	227.635	106.727	21.148
152.259	746.900	406.864	203.640	251.654	700.121	122.060	239.957	111.137	21.132
153.048	750.000	392.558	192.800	251.302	708.956	120.644	230.905	109.507	20.905
153.833	753.500	406.199	189.709	252.963	697.746	121.981	239.252	111.200	20.372
154.623	756.600	388.623	200.425	248.193	697.740	119.955	238.683	104.975	19.429
155.413	759.600	394.747	192.646	247.196	705.496	115.850	237.367	109.876	19.914
156.202	762.700	395.255	195.002	247.880	694.551	120.252	244.045	105.253	21.980
156.991	765.800	397.467	201.183	254.105	703.208	115.815	237.582	103.167	19.063
157.779	768.900	388.749	200.070	265.244	708.068	113.975	236.571	109.037	20.710
158.565	772.400	398.650	189.597	252.758	692.539	119.250	241.468	100.903	18.920
159.355	775.500	402.678	198.369	251.311	704.398	113.028	239.677	102.123	19.636
160.141	778.500	403.436	195.157	252.954	710.225	117.061	245.017	106.425	19.601
160.930	781.600	392.894	196.657	258.664	700.662	118.515	238.372	101.647	21.214
161.718	784.700	392.455	196.774	260.908	694.766	116.123	232.818	101.460	19.336
162.505	787.800	392.465	194.273	261.762	711.909	108.110	236.651	102.529	17.991
163.294	791.400	380.596	197.190	248.306	708.533	113.335	237.319	101.415	19.874
164.085	794.400	392.427	198.228	257.002	711.333	118.769	239.262	100.490	19.749
164.877	797.500	390.013	195.340	254.063	714.260	114.461	236.611	101.849	18.303
165.664	800.600	397.659	193.110	255.297	711.098	111.500	240.999	101.926	18.727
166.454	803.700	402.082	196.809	261.414	705.801	113.432	237.531	98.024	17.441
167.242	806.800	399.707	195.209	261.068	710.551	113.315	236.786	97.638	20.575
168.030	810.300	391.262	194.310	257.274	732.194	106.916	244.542	100.152	19.823
168.818	813.400	391.127	200.979	257.986	733.859	106.807	237.943	101.628	19.312
169.607	816.400	387.794	202.732	263.359	731.899	114.185	242.631	98.820	18.611
170.395	819.500	396.987	190.083	259.547	752.028	102.101	238.068	98.987	20.026
171.184	822.500	383.166	194.678	260.684	737.144	104.620	234.215	99.140	18.207
171.976	825.600	392.184	192.107	261.993	749.364	110.754	236.167	97.439	17.446
172.767	829.100	401.239	191.457	259.364	747.443	107.245	244.936	93.604	18.648
173.555	832.100	388.463	187.028	261.521	761.963	106.794	239.184	96.788	19.959
174.347	835.200	395.971	191.123	261.923	764.515	107.752	233.169	94.190	17.988
175.138	838.300	391.124	194.246	261.642	764.569	109.074	241.523	92.168	18.913
175.928	841.300	386.610	199.649	268.390	772.269	106.363	238.554	98.898	17.565
176.716	844.700	389.104	201.581	261.278	773.685	106.851	237.694	96.167	17.318
177.502	847.800	391.092	201.884	264.779	786.860	106.031	239.412	96.964	16.909
178.288	850.900	386.051	202.743	256.829	792.753	106.017	243.730	97.537	18.113
179.077	854.100	392.208	196.827	259.686	795.443	103.328	239.802	91.621	16.825
179.863	857.100	379.060	195.448	265.161	802.570	104.765	237.061	90.767	16.545
180.651	860.200	383.588	208.850	274.173	796.751	107.774	236.701	93.464	16.882
181.435	863.200	401.875	204.160	268.419	802.647	104.498	234.352	93.361	16.858
182.222	866.700	392.052	201.461	264.993	814.840	102.961	247.350	91.143	17.594
183.010	869.800	381.199	202.972	269.315	815.518	106.369	246.027	91.484	16.301
183.799	872.900	386.471	213.295	265.898	814.401	104.620	242.812	89.279	17.750
184.586	876.000	386.827	202.486	272.938	824.180	100.385	234.067	92.119	16.268
185.374	879.100	385.605	196.428	265.166	819.127	100.965	244.544	90.008	16.628
186.161	882.200	395.481	202.140	275.664	817.248	103.644	241.070	92.981	15.833
186.948	885.800	386.087	207.180	270.919	824.323	107.313	236.567	90.768	18.475
187.735	888.900	392.053	202.406	277.115	829.839	105.820	238.908	85.372	17.299
188.525	891.900	389.880	198.415	278.468	829.527	103.344	240.779	91.475	15.930
189.315	894.900	384.693	205.527	268.183	831.950	100.592	239.929	88.523	17.413
190.105	898.000	383.703	208.516	277.025	837.458	98.804	242.440	94.090	15.088
190.898	901.100	386.016	205.114	272.093	828.245	103.345	246.514	91.542	16.562
191.689	904.600	382.396	203.934	265.949	830.619	100.990	243.956	91.506	18.571
192.476	907.700	396.418	203.005	281.325	837.013	101.277	231.348	91.592	16.980
193.265	910.900	391.876	199.936	273.697	825.179	102.262	242.391	92.981	17.436
194.054	914.000	394.892	206.217	278.112	816.175	104.347	247.108	92.590	16.382
194.841	917.200	395.271	200.494	278.329	803.334	103.433	236.115	92.528	18.593
195.633	920.800	394.250	202.335	272.313	800.821	99.206	236.941	90.925	18.752
196.425	923.900	392.418	206.848	283.980	797.448	101.873	241.874	90.245	16.605
197.215	927.000	386.222	201.013	287.314	802.672	103.563	241.183	89.535	17.201
198.005	930.000	383.242	196.615	275.875	770.431	95.259	245.269	90.863	16.647
198.791	933.000	388.063	203.411	281.271	771.357	99.089	241.237	86.684	15.072
199.578	936.000	388.913	205.296	287.710	775.134	104.222	241.700	89.837	16.463
200.366	939.500	394.369	194.267	281.278	765.060	101.429	239.873	88.872	15.835
201.155	942.600	391.435	190.856	277.896	761.736	102.617	246.748	89.707	15.970
201.944	945.600	393.490	195.637	281.986	764.501	98.536	242.404	89.949	17.895
202.732	948.600	387.593	198.126	283.507	750.392	100.523	240.659	88.885	16.325
203.521	951.600	389.885	183.774	290.522	742.498	95.610	244.711	92.838	16.958
204.307	954.700	389.251	191.115	287.698	744.665	99.586	242.192	90.269	16.752
205.097	958.100	393.569	194.452	286.003	752.746	98.520	248.550	88.255	16.415
205.886	961.000	393.958	203.154	283.666	731.351	94.583	247.183	89.627	14.232
206.675	964.100	392.237	200.171	290.765	735.611	101.654	240.560	90.280	15.548
207.465	967.200	386.589	200.044	283.656	731.684	97.498	243.517	88.556	16.031
208.255	970.300	380.485	193.886	292.722	734.330	99.888	244.585	87.525	16.689
209.041	973.400	385.092	193.477	284.715	721.512	99.067	244.513	84.810	17.189
209.826	976.900	393.555	204.543	289.003	730.958	102.265	243.659	88.100	15.211
210.613	979.900	402.785	195.900	289.193	732.947	99.235	239.696	88.203	17.894
211.403	982.900	399.660	187.194	294.216	715.779	99.577	241.239	87.837	16.316
212.191	986.100	392.006	201.207	302.488	727.236	96.878	248.844	85.605	16.411
212.982	989.200	385.474	194.548	301.352	727.447	99.730	248.205	88.078	16.031
213.770	992.300	397.895	194.975	286.954	721.926	97.531	248.269	87.144	17.383
214.559	995.700	395.850	186.606	293.977	724.640	100.199	245.208	88.412	14.951
215.347	998.900	399.013	201.798	286.837	727.755	96.904	235.400	85.078	15.542
216.134	1002.100	394.874	193.341	292.542	725.641	97.838	245.489	87.188	16.986
216.924	1005.200	399.549	186.724	300.251	714.180	96.557	247.616	86.486	14.540
217.712	1008.300	395.987	200.342	297.864	715.209	101.220	244.037	89.833	16.891
218.502	1011.200	408.540	190.262	305.031	717.314	97.450	245.867	89.057	15.973
219.290	1014.700	419.085	200.834	305.317	696.955	99.389	252.500	88.634	15.236
220.077	1017.800	399.066	193.206	298.926	706.806	100.239	248.918	90.027	15.911
220.865	1021.100	409.784	193.451	299.989	703.318	96.006	247.201	84.029	14.690
221.653	1024.200	401.914	195.969	303.171	709.127	93.107	253.099	82.277	15.016
222.443	1027.200	402.726	200.629	293.388	701.748	100.862	250.063	90.053	16.417
223.230	1030.200	404.656	194.802	310.106	708.191	98.666	249.817	86.890	15.448
224.020	1033.700	420.864	189.559	300.847	720.058	92.630	253.464	88.891	16.614
224.811	1036.900	418.362	206.986	314.118	721.187	101.162	250.625	88.352	14.963
225.600	1040.100	410.126	196.563	309.730	718.223	96.861	245.444	87.411	15.436
226.388	1043.100	402.828	199.773	301.105	700.525	98.086	250.636	83.702	18.466
227.180	1046.000	403.019	195.877	308.490	710.959	99.968	256.640	87.960	17.105
227.969	1048.900	415.405	200.371	309.484	696.883	99.738	253.527	84.653	16.462
228.754	1052.400	402.328	202.545	306.097	703.776	103.693	245.806	86.150	17.378
229.539	1055.500	412.436	194.775	312.180	718.921	98.160	251.775	88.747	14.478
230.321	1058.500	398.555	196.256	308.647	720.689	94.404	245.255	84.374	16.194
231.109	1061.500	417.295	196.334	306.781	707.470	103.716	255.269	86.914	15.497
231.895	1064.600	406.138	197.994	310.212	719.357	99.492	251.327	88.845	17.953
232.682	1067.700	407.682	202.021	307.316	711.623	96.617	247.598	88.651	15.042
233.472	1071.200	390.540	201.798	308.920	717.757	97.932	244.759	84.035	15.221
234.264	1074.300	401.496	202.479	315.187	721.158	97.077	248.095	85.463	16.177
235.056	1077.400	407.363	199.440	309.466	726.095	95.322	253.389	82.784	15.092
235.847	1080.400	404.684	204.101	303.237	721.289	99.158	254.416	87.234	16.271
236.635	1083.500	403.474	195.301	314.342	718.003	97.196	255.598	86.460	14.075
237.426	1086.700	396.378	196.014	324.787	730.572	96.493	242.285	80.879	17.457
238.210	1090.200	395.753	192.211	315.018	718.730	98.843	248.548	86.585	16.731
238.998	1093.100	392.312	208.282	325.668	717.822	95.281	251.636	87.993	15.931
239.786	1096.100	412.628	194.866	320.635	721.987	92.880	245.920	81.657	15.947
240.576	1099.200	404.984	201.297	312.142	739.183	97.217	255.565	83.896	15.857
241.364	1102.300	395.567	200.639	322.047	747.735	95.276	253.583	85.478	17.724
242.152	1105.300	396.748	198.964	330.566	749.467	94.229	251.746	88.192	14.021
242.940	1108.800	399.078	198.848	325.051	746.864	93.734	258.230	85.649	16.395
243.729	1111.900	391.454	203.535	318.050	748.027	96.623	255.788	90.240	15.458
244.518	1115.000	398.073	194.213	330.293	751.716	99.630	252.608	87.373	17.013
245.304	1118.100	400.857	211.005	325.801	759.692	89.842	254.182	82.734	14.449
246.094	1121.200	395.893	195.826	332.905	763.424	95.380	245.997	85.864	14.062
246.883	1124.200	409.571	203.966	330.756	779.849	95.635	250.918	82.416	15.767
247.672	1127.700	393.999	201.415	319.491	770.855	98.561	253.480	85.705	14.747
248.462	1130.900	405.859	198.539	333.736	790.248	100.141	248.677	89.796	13.712
249.249	1134.000	402.000	202.199	338.699	767.948	94.802	253.038	85.059	17.845
250.038	1137.000	400.507	210.834	332.614	778.481	92.694	253.731	86.055	15.468
250.826	1140.000	396.773	202.927	330.098	780.825	98.392	255.262	79.433	14.390
251.613	1143.100	388.766	201.951	326.340	792.963	97.049	246.060	86.193	15.222
252.403	1146.600	405.519	212.032	337.198	793.344	91.885	252.380	82.486	13.004
253.191	1149.700	399.848	215.597	338.302	817.127	93.919	251.965	87.521	14.947
253.980	1152.800	418.771	208.988	346.278	825.635	94.354	254.281	85.515	16.105
254.766	1155.800	414.214	208.666	336.809	842.713	93.053	246.933	85.241	15.948
255.556	1158.900	416.412	209.218	336.969	848.797	93.600	254.718	84.192	15.408
256.343	1162.000	412.796	212.055	336.129	878.201	94.261	255.283	82.927	15.617
257.132	1165.500	427.821	212.408	339.004	878.288	98.356	254.791	85.594	15.725
257.922	1168.600	417.861	216.242	341.088	891.022	92.761	254.101	86.393	16.103
258.708	1171.600	429.963	221.084	329.819	922.563	90.200	257.840	82.791	16.398
259.497	1174.600	429.508	218.445	343.127	920.773	95.835	253.178	84.159	14.187
260.286	1177.600	427.774	218.140	349.850	959.351	93.868	256.152	88.775	16.737
261.071	1180.800	422.392	228.268	341.768	979.879	96.621	260.991	83.933	16.754
261.859	1184.300	426.775	223.570	349.394	993.985	94.138	258.011	84.737	14.700
262.647	1187.300	440.308	228.906	346.598	1033.707	94.074	261.980	87.037	16.035
263.436	1190.400	425.319	223.278	343.112	1052.657	93.138	257.371	86.540	14.661
264.224	1193.300	426.063	219.640	354.075	946.667	96.133	257.136	81.832	16.189
265.014	1195.600	427.083	221.517	339.935	908.567	96.029	255.516	80.829	16.064
265.802	1196.700	414.845	222.151	345.775	963.198	98.448	262.436	83.717	15.952
266.588	1197.300	415.617	224.431	349.796	1003.777	93.340	253.630	83.996	14.030
267.376	1198.100	414.785	225.101	351.927	989.416	92.281	252.017	79.173	15.542
268.165	1199.100	410.538	222.695	354.041	941.930	89.246	255.159	82.062	14.654
268.948	1199.700	410.890	220.478	358.913	945.027	97.721	261.587	79.733	14.180
