Fri, Mar 25, 2016	1:10 PM
 Notes: 
 waiting time: 30.000
 time(s)	 temp (K)	 MS1=2.085	 MS2=15.166	 MS3=17.074	 MS4=26.712	 MS5=41.148	 MS6=42.035	 MS7=42.992	 MS8=57.407
0.000	169.800	406.702	159.305	273.602	586.125	69.258	169.153	57.621	9.546
0.789	169.800	405.844	159.017	267.824	580.897	72.560	170.386	63.449	9.738
1.578	169.800	410.022	158.789	268.005	562.258	71.460	171.049	64.718	11.490
2.366	169.800	416.711	164.430	270.135	569.675	72.736	176.835	59.138	11.593
3.149	169.800	413.728	163.665	258.032	574.516	70.175	172.047	61.806	10.597
3.936	169.800	408.172	161.167	267.427	578.846	77.475	174.332	67.096	10.118
4.721	169.800	396.730	154.222	260.238	577.938	76.663	170.905	68.664	12.970
5.514	169.800	422.524	157.366	266.232	575.904	77.368	168.709	66.268	11.890
6.300	169.800	422.632	154.592	263.424	583.326	78.364	169.766	68.899	10.854
7.090	169.800	409.081	160.330	266.761	579.176	79.618	170.271	69.955	12.815
7.882	169.900	410.368	158.719	270.175	581.252	80.635	173.046	67.560	10.890
8.674	170.000	425.992	160.211	259.799	571.752	81.312	169.835	72.672	11.406
9.465	170.400	416.028	166.767	269.090	587.585	84.530	171.415	74.010	15.187
10.249	171.100	398.399	166.314	284.517	600.864	92.827	169.317	87.003	13.860
11.037	172.300	417.734	162.984	285.752	599.260	102.904	178.630	86.453	15.284
11.826	174.000	409.637	171.645	302.502	589.134	106.633	169.550	97.226	15.921
12.616	176.200	418.600	172.974	310.385	594.678	125.099	180.190	103.189	19.358
13.400	178.800	414.401	175.643	314.597	596.627	145.722	185.749	117.442	23.728
14.191	182.300	422.112	179.871	321.595	588.390	160.631	181.687	136.191	28.405
14.981	185.500	421.607	191.762	323.655	598.650	177.664	188.102	151.740	29.900
15.768	188.900	422.594	192.785	327.233	605.930	191.653	191.193	165.383	33.340
16.558	192.400	413.813	198.346	324.900	614.762	217.909	205.746	184.108	34.647
17.344	195.900	419.764	207.670	322.951	617.142	236.783	197.070	213.806	38.920
18.132	199.400	424.752	222.237	337.712	641.457	275.530	209.172	242.449	48.666
18.921	203.500	428.848	235.445	343.793	648.202	326.736	222.326	295.034	63.170
19.708	207.000	434.133	267.079	361.919	663.271	419.855	236.307	388.868	82.625
20.496	210.600	431.828	302.483	397.155	706.492	569.144	260.965	531.934	113.136
21.281	214.200	458.020	359.320	440.880	756.155	759.819	284.019	695.446	144.502
22.072	217.700	489.404	416.745	459.966	810.201	914.976	302.719	778.292	155.167
22.861	221.300	482.345	434.093	472.780	803.325	823.117	309.036	678.626	138.326
23.651	225.300	473.810	393.634	452.613	779.367	684.378	298.998	567.399	117.089
24.442	228.900	468.943	360.144	437.034	762.981	569.325	291.497	470.149	94.255
25.236	232.300	450.660	320.910	405.175	756.648	471.451	275.030	393.511	77.767
26.025	235.800	458.921	300.742	383.530	724.346	400.558	262.494	335.107	64.686
26.813	239.200	458.731	281.478	374.150	709.209	349.247	252.393	306.322	59.012
27.601	243.100	437.646	278.107	357.984	692.936	330.379	254.877	279.762	57.379
28.388	246.500	441.446	261.744	349.693	695.841	313.592	246.619	260.413	52.445
29.177	249.800	450.997	256.682	349.582	699.405	292.123	235.716	246.871	48.854
29.968	253.200	434.084	256.896	330.414	676.427	287.036	242.343	243.850	47.630
30.752	256.500	437.179	251.965	333.599	675.669	262.854	241.231	246.041	42.635
31.540	259.800	440.523	245.933	329.374	671.216	261.059	231.757	223.820	44.544
32.330	263.600	449.345	244.457	325.946	672.124	265.158	233.235	220.796	47.545
33.119	266.800	449.929	247.107	323.605	653.919	248.106	228.454	218.955	43.229
33.910	270.100	441.256	240.548	326.940	656.290	246.846	228.357	216.349	41.255
34.701	273.500	461.714	240.019	324.849	653.822	238.162	218.894	211.681	42.153
35.492	276.800	450.620	233.574	322.858	655.348	240.704	224.747	210.190	39.981
36.277	280.100	472.951	240.141	309.383	652.332	235.842	228.540	206.802	41.800
37.062	283.800	474.976	238.360	311.958	647.528	233.844	221.064	197.989	38.862
37.854	286.900	470.515	230.227	304.506	652.479	233.394	225.302	200.575	36.517
38.643	290.100	482.509	228.312	305.224	638.191	218.228	223.486	199.744	39.280
39.433	293.200	501.130	219.866	300.623	635.758	225.663	218.815	195.109	38.782
40.225	296.300	487.975	216.271	301.434	641.677	216.570	215.439	193.240	36.621
41.014	299.800	510.841	217.316	306.813	649.960	217.378	215.692	188.786	38.539
41.801	302.900	496.952	214.302	288.604	639.007	216.275	215.117	181.914	34.182
42.591	305.900	496.167	212.396	295.526	639.759	211.246	218.487	189.351	38.361
43.382	308.900	516.878	215.267	293.732	629.638	206.910	211.120	187.267	36.528
44.171	311.900	528.435	219.410	297.994	638.060	201.282	213.257	184.550	31.877
44.960	314.900	538.456	212.114	291.022	637.895	210.288	211.214	182.008	36.238
45.749	318.500	541.208	215.627	291.159	639.655	204.620	207.538	183.728	32.931
46.538	321.600	529.522	221.923	301.916	632.069	200.815	207.471	173.796	34.952
47.328	324.600	542.747	217.931	285.925	632.867	200.574	206.446	185.596	35.095
48.117	327.700	545.134	221.801	286.358	628.080	201.537	209.989	179.500	35.460
48.907	330.800	545.916	210.157	285.606	622.605	199.450	204.774	167.017	34.416
49.699	333.800	544.316	208.246	286.922	636.218	198.569	214.474	166.014	32.843
50.487	337.300	560.913	211.630	287.649	631.618	194.626	213.140	176.697	33.354
51.274	340.400	542.381	207.466	286.402	617.840	197.074	213.331	172.891	35.773
52.063	343.400	562.297	213.379	279.435	631.549	195.301	218.651	165.428	35.420
52.851	346.500	557.311	213.697	287.270	632.578	192.459	220.650	165.934	33.673
53.642	349.700	575.368	203.714	270.770	625.734	190.223	220.017	169.969	31.276
54.430	352.800	567.768	207.557	275.501	629.909	190.719	231.371	162.126	33.876
55.221	356.400	580.808	214.212	272.276	625.733	186.282	228.964	168.663	34.956
56.014	359.400	578.284	209.705	286.715	613.290	184.410	224.912	159.646	31.319
56.804	362.500	587.487	215.147	283.128	619.776	186.096	232.077	166.731	30.751
57.596	365.500	587.084	214.070	269.339	619.117	180.625	227.327	159.805	31.724
58.387	368.600	577.190	207.484	273.932	623.992	187.229	232.316	163.303	33.047
59.178	372.100	576.507	213.361	269.615	623.708	189.190	226.428	164.686	32.009
59.966	375.200	577.181	215.831	268.481	621.459	181.298	226.434	155.947	31.242
60.755	378.300	582.499	216.022	265.517	625.851	177.002	215.300	163.385	32.133
61.542	381.600	580.819	206.548	265.232	636.395	188.376	222.868	161.292	29.313
62.331	384.800	567.822	208.188	266.265	636.464	177.502	212.079	157.843	31.001
63.121	388.100	566.546	197.087	261.333	638.046	178.325	220.618	156.613	30.810
63.909	391.700	550.938	205.840	265.528	640.032	174.883	218.195	155.077	33.228
64.700	394.800	541.346	205.137	263.401	645.123	178.366	216.796	154.092	32.101
65.490	397.900	555.478	210.669	260.404	653.102	173.619	213.070	157.764	30.620
66.276	400.900	555.040	200.881	259.196	664.021	173.030	211.866	157.812	30.560
67.062	404.000	526.262	202.642	258.415	657.536	176.796	203.243	155.575	30.399
67.850	407.000	551.931	201.543	255.137	677.512	174.677	211.167	152.966	30.273
68.637	410.500	531.415	205.318	265.215	675.898	167.737	206.493	148.987	28.767
69.428	413.600	528.157	206.739	263.845	681.079	170.771	201.912	153.392	30.233
70.218	416.600	528.573	198.426	253.576	691.483	170.040	205.476	150.897	27.765
71.009	419.600	522.383	203.893	253.051	695.125	172.598	208.191	143.121	28.668
71.800	422.700	516.981	197.405	257.801	715.837	170.941	206.684	147.599	28.436
72.588	426.100	507.998	204.397	248.527	711.725	166.049	209.874	146.955	28.847
73.378	429.100	530.542	198.235	261.515	703.526	175.935	204.917	144.848	28.852
74.169	432.100	522.292	206.229	253.998	724.772	167.812	201.728	143.799	27.851
74.959	435.100	501.936	195.819	254.638	717.481	168.444	200.758	149.462	28.767
75.748	438.100	509.746	198.029	258.776	729.163	166.516	203.578	141.816	30.226
76.539	441.100	506.127	196.456	260.647	726.817	165.519	196.577	148.585	28.895
77.326	444.500	512.272	200.673	253.682	721.832	166.050	202.690	150.015	27.699
78.110	447.500	511.436	201.854	246.142	732.284	161.557	198.575	147.790	28.421
78.897	450.700	501.862	194.998	246.623	717.717	164.173	197.589	141.340	28.246
79.685	453.900	495.555	193.358	244.653	706.385	162.316	204.031	147.779	31.166
80.476	457.000	499.386	200.999	239.579	712.382	163.460	208.341	142.674	27.306
81.266	460.000	491.841	196.430	245.015	712.141	159.463	201.568	140.956	26.482
82.053	463.400	493.376	197.359	246.253	707.138	157.315	194.593	138.974	26.118
82.842	466.300	494.044	192.425	245.888	723.692	158.906	200.139	139.074	29.011
83.632	469.400	498.577	197.107	244.860	704.458	154.667	204.269	142.063	30.258
84.422	472.500	484.257	197.826	239.918	708.346	161.663	198.273	137.438	26.852
85.211	475.600	495.798	192.713	248.555	704.389	157.846	197.864	138.869	28.545
86.000	478.700	492.892	198.377	244.551	701.669	152.196	196.286	142.764	27.519
86.790	482.300	496.612	184.153	245.908	699.429	150.353	195.324	142.082	26.534
87.580	485.400	491.069	195.273	243.653	695.457	159.084	193.960	134.751	27.762
88.372	488.500	484.485	192.516	237.840	702.344	155.709	199.078	139.855	30.831
89.160	491.600	468.754	191.857	240.696	693.467	156.529	195.947	140.464	26.401
89.950	494.700	482.229	203.839	235.404	696.432	149.770	201.787	138.415	27.394
90.738	498.400	479.461	194.503	243.934	697.818	156.882	199.727	141.795	26.805
91.527	501.600	479.314	192.992	246.235	690.342	156.188	200.480	138.356	28.346
92.318	504.800	487.861	190.378	235.105	659.125	156.719	198.433	133.613	24.068
93.106	508.000	492.282	190.334	241.395	682.501	157.995	196.608	140.288	28.098
93.895	511.100	466.003	191.157	230.472	668.032	157.073	199.546	138.967	26.666
94.685	514.200	473.470	191.312	237.662	663.904	152.748	199.006	134.125	30.654
95.475	517.700	473.946	191.550	236.327	664.038	145.880	198.449	137.309	24.971
96.263	520.600	458.656	187.912	236.812	659.923	153.771	197.837	134.508	28.467
97.051	523.600	466.529	194.273	240.215	645.512	149.087	194.565	135.467	26.438
97.840	526.600	465.953	182.648	237.568	658.377	150.315	197.215	139.025	27.684
98.623	529.600	458.418	186.488	233.898	640.826	155.559	196.766	135.244	27.419
99.410	532.600	452.545	183.465	239.890	661.337	153.434	193.971	138.996	27.104
100.201	536.000	461.742	185.813	234.080	641.394	152.220	196.357	138.167	27.897
100.989	539.100	474.494	189.241	239.364	647.541	149.836	197.642	136.056	26.784
101.778	542.200	464.688	187.821	238.874	656.740	157.632	195.376	141.115	26.414
102.565	545.300	449.272	183.828	236.227	650.961	159.692	192.040	134.726	28.315
103.352	548.400	463.641	189.451	230.546	655.038	154.371	191.120	137.916	28.373
104.144	551.600	465.885	189.098	233.772	652.858	148.705	189.389	134.273	27.003
104.932	555.000	464.586	181.543	228.656	644.307	158.872	194.364	134.152	28.831
105.722	558.100	464.495	193.500	233.719	638.735	160.337	191.402	132.592	27.331
106.513	561.100	461.396	182.201	240.275	655.749	150.912	196.017	139.423	25.139
107.301	564.200	453.099	182.981	238.429	651.630	157.382	185.762	131.031	25.467
108.090	567.300	464.335	182.118	242.261	641.043	148.857	197.658	136.958	27.435
108.879	570.500	455.264	186.074	243.429	632.013	148.928	192.158	137.706	26.887
109.667	574.300	462.607	184.471	225.765	658.176	153.529	191.305	136.821	25.127
110.457	577.600	458.140	194.966	232.786	644.830	157.724	189.522	133.271	25.606
111.243	580.800	449.442	187.604	234.966	642.174	154.687	191.004	130.045	25.672
112.030	583.900	456.854	181.567	230.049	637.933	149.416	194.234	134.959	25.457
112.817	586.900	456.962	187.890	232.279	635.357	153.592	196.146	130.980	24.236
113.607	590.000	458.562	186.362	232.860	641.686	152.758	184.872	130.133	23.973
114.398	593.500	448.068	177.569	235.637	632.738	151.300	195.790	135.989	23.276
115.186	596.600	447.718	178.132	237.047	634.075	152.417	188.865	130.151	25.951
115.974	599.700	452.295	181.759	232.092	633.251	152.490	193.114	131.907	27.330
116.764	602.700	446.581	177.485	234.964	639.293	150.108	188.803	127.170	24.675
117.555	605.700	451.052	179.463	229.656	635.415	139.790	188.791	128.264	24.087
118.347	609.200	432.678	186.638	231.247	625.121	141.268	182.356	135.438	26.387
119.138	612.200	445.566	177.991	227.994	640.551	149.859	190.405	123.941	24.083
119.928	615.200	435.561	176.110	227.002	642.473	135.942	190.585	125.685	22.884
120.715	618.200	434.820	175.357	226.825	623.427	134.392	185.797	123.847	25.786
121.507	621.300	431.937	179.687	232.042	638.616	138.269	185.807	124.669	24.222
122.295	624.300	444.444	181.092	227.119	637.460	138.888	183.620	124.749	22.293
123.086	627.700	439.806	170.364	234.712	631.073	142.175	181.892	120.242	25.505
123.871	630.700	438.376	169.250	232.051	623.525	139.058	184.928	123.563	24.404
124.659	633.700	433.228	176.424	234.517	637.624	142.285	186.558	121.653	21.735
125.450	636.600	432.399	181.813	225.054	635.609	132.906	181.819	125.063	25.321
126.241	639.600	421.916	174.317	234.164	627.209	141.792	179.007	120.064	23.410
127.031	642.600	436.701	182.761	227.668	641.946	130.274	185.081	123.017	20.915
127.822	646.100	428.198	171.181	232.399	631.910	138.336	182.462	117.354	22.878
128.610	649.200	428.158	173.825	227.619	640.639	138.741	177.851	122.175	23.011
129.398	652.300	425.483	174.345	229.035	636.581	128.439	185.182	119.173	24.411
130.186	655.400	424.299	175.778	237.675	629.066	134.093	179.837	118.121	23.479
130.976	658.400	422.515	169.181	222.721	631.395	132.650	182.853	122.977	21.425
131.764	661.900	426.843	170.452	239.158	641.047	126.858	174.344	119.685	21.663
132.553	665.000	426.147	171.766	233.738	631.993	134.117	178.435	116.271	23.977
133.343	668.100	427.675	173.147	227.397	643.739	133.676	180.580	116.750	22.808
134.132	671.300	427.054	170.049	227.065	641.154	128.938	177.286	115.982	19.967
134.919	674.400	414.120	169.162	236.525	636.951	128.791	185.892	113.920	23.349
135.709	677.500	417.062	172.156	231.070	638.352	130.069	172.575	116.102	23.076
136.499	681.000	416.130	172.253	227.241	642.175	126.853	175.294	113.297	19.781
137.286	684.100	433.253	169.986	228.042	647.499	124.460	176.093	116.838	19.160
138.074	687.200	438.911	168.504	229.803	637.702	126.526	178.239	114.966	21.448
138.863	690.300	412.797	167.221	230.042	620.055	126.411	181.227	111.323	22.964
139.653	693.400	413.970	172.038	234.164	636.384	125.975	181.432	110.877	21.985
140.443	696.500	418.196	166.893	220.081	641.871	124.682	183.391	109.141	21.972
141.231	700.000	424.581	166.570	227.660	642.930	116.796	171.519	111.579	21.433
142.018	703.000	416.251	160.709	236.357	636.950	120.986	176.856	107.716	20.963
142.808	706.100	420.012	163.063	230.054	648.252	115.646	168.249	107.836	20.172
143.600	709.200	419.015	171.184	241.061	632.943	119.814	178.928	106.183	20.820
144.389	712.300	410.369	166.245	229.602	625.935	120.216	179.271	107.320	18.234
145.178	715.400	408.613	163.886	234.723	646.167	128.017	174.930	103.249	21.428
145.968	718.900	420.848	162.775	226.511	637.302	116.945	173.354	109.048	19.281
146.758	722.000	419.408	167.216	238.804	633.569	119.555	170.682	103.324	21.092
147.550	725.100	415.059	166.399	227.411	626.016	118.794	174.267	109.863	20.916
148.339	728.100	413.297	171.706	226.703	631.534	117.549	175.031	102.980	19.205
149.130	731.200	403.624	164.543	234.519	640.639	116.205	177.627	104.585	19.061
149.919	734.800	407.533	166.559	230.835	628.605	115.568	171.435	106.435	19.036
150.712	737.800	413.261	158.580	244.405	622.580	114.171	177.398	98.558	20.077
151.501	740.900	412.871	168.726	234.467	627.375	112.889	171.512	107.917	20.304
152.288	744.000	402.827	166.419	235.633	615.947	117.975	172.765	105.091	19.110
153.076	747.200	416.248	164.790	229.298	614.270	118.619	166.865	100.363	18.607
153.864	750.300	400.371	165.983	233.581	633.963	111.245	169.841	99.601	18.821
154.652	753.800	414.310	163.901	235.167	626.540	115.219	170.081	102.282	20.390
155.441	756.900	408.376	162.572	236.768	627.693	113.693	176.019	101.364	20.220
156.227	759.900	418.745	158.725	240.716	623.022	116.297	169.354	103.014	22.483
157.016	763.000	409.406	151.594	232.836	618.074	112.163	178.511	104.159	19.664
157.804	766.100	405.408	162.839	234.729	618.685	109.380	168.526	97.808	18.081
158.593	769.200	417.591	160.365	237.807	622.157	117.065	170.304	96.602	19.469
159.380	772.700	403.525	156.505	241.932	627.990	107.561	167.911	99.694	17.827
160.167	775.800	398.587	159.655	239.740	620.127	112.691	172.859	95.304	16.494
160.955	778.900	412.641	159.467	232.492	621.982	104.594	173.497	93.616	18.940
161.741	782.000	409.220	156.004	232.045	616.259	107.477	174.201	99.017	20.251
162.532	785.000	416.696	159.926	240.532	620.238	110.742	175.307	97.178	19.154
163.323	788.100	406.660	155.535	242.506	626.166	107.522	170.932	93.822	17.014
164.112	791.500	409.201	157.871	246.488	626.445	109.719	169.555	98.787	18.390
164.904	794.600	404.932	163.514	243.093	625.790	108.433	171.945	96.403	18.460
165.694	797.700	406.452	161.369	243.193	621.263	105.167	168.949	97.514	18.421
166.485	800.700	403.164	156.607	241.224	625.620	102.786	171.026	97.340	19.379
167.279	803.800	412.307	162.222	242.258	633.176	107.819	169.124	95.333	18.175
168.070	807.300	404.662	155.533	240.996	630.774	101.748	170.352	96.005	19.808
168.860	810.300	392.674	156.185	235.449	636.768	102.125	172.397	97.675	17.662
169.648	813.400	403.978	154.298	239.078	632.540	108.321	175.587	94.167	18.389
170.437	816.500	400.944	153.779	240.376	642.128	104.400	163.873	92.047	18.219
171.227	819.600	401.870	158.426	246.562	643.432	105.485	169.867	92.570	16.610
172.014	822.600	400.563	162.187	244.111	649.543	101.953	169.149	90.204	16.929
172.797	826.100	401.634	156.748	245.425	652.591	103.354	166.647	93.957	16.157
173.584	829.100	401.246	161.326	243.852	670.773	98.731	159.876	91.361	14.905
174.372	832.200	398.188	161.484	238.124	666.448	102.664	167.300	93.806	16.680
175.162	835.400	390.020	160.452	247.088	676.795	102.436	168.908	88.974	16.547
175.950	838.500	395.054	160.513	234.594	686.837	102.722	166.846	89.775	16.836
176.738	841.500	392.352	156.959	249.621	680.753	100.471	172.557	90.383	17.227
177.527	844.900	397.183	152.805	245.461	684.269	101.934	166.916	86.234	15.525
178.318	847.900	407.831	165.256	247.820	681.856	103.975	168.340	88.879	16.281
179.107	851.100	395.182	160.571	247.893	698.656	101.199	164.721	90.712	18.578
179.897	854.200	400.803	159.430	249.756	706.137	101.874	175.254	89.216	16.643
180.685	857.300	405.893	156.466	249.549	702.130	98.215	163.138	84.792	17.323
181.474	860.300	392.679	162.573	253.044	710.660	99.420	168.531	87.907	15.917
182.265	863.800	406.747	157.939	264.700	710.566	99.052	163.888	90.482	17.702
183.054	866.900	399.029	163.574	255.109	709.795	101.746	163.274	84.600	17.647
183.840	870.000	388.323	158.077	249.965	715.949	97.307	166.457	85.748	18.769
184.630	873.000	411.374	162.364	249.646	724.104	97.218	169.828	89.821	16.999
185.421	876.100	391.492	156.668	253.271	714.962	95.502	167.091	87.167	17.256
186.210	879.100	406.109	166.263	250.076	722.223	95.389	170.383	84.478	18.662
186.998	882.600	403.085	161.008	255.370	721.052	96.550	172.331	85.403	13.841
187.786	885.700	385.475	167.913	255.949	724.587	97.356	164.577	82.861	15.874
188.572	888.800	405.503	160.773	255.706	719.586	95.740	164.531	87.667	15.765
189.362	891.900	399.630	156.797	265.836	713.651	95.812	165.407	87.717	13.661
190.146	894.900	398.671	161.219	258.037	721.103	96.463	167.999	85.054	16.209
190.933	898.000	388.705	165.028	255.751	704.128	90.438	163.014	83.407	15.084
191.715	901.500	404.591	158.944	268.146	709.808	95.994	166.844	85.254	17.355
192.503	904.600	395.800	164.398	258.578	716.294	95.962	164.602	88.592	14.665
193.293	907.600	395.000	161.115	265.622	702.595	92.606	169.047	86.149	15.699
194.083	910.700	386.918	160.136	262.539	711.071	92.752	164.135	85.754	15.341
194.870	913.800	394.991	157.309	266.988	711.145	93.230	165.548	83.314	18.662
195.661	916.900	395.054	158.186	271.374	710.244	93.354	164.603	85.359	16.479
196.447	920.400	393.928	161.032	265.836	700.873	97.693	168.763	81.832	14.625
197.232	923.500	401.491	156.129	265.970	688.920	93.577	165.668	80.748	15.365
198.019	926.600	402.833	161.802	258.058	694.144	92.485	161.301	81.851	13.143
198.808	929.600	402.139	153.699	275.343	695.606	88.778	167.019	84.801	14.862
199.594	932.700	390.566	157.501	268.896	695.835	95.808	166.847	78.648	15.947
200.380	935.800	390.582	156.448	265.696	686.602	90.760	166.083	77.832	15.129
201.169	938.900	396.991	160.013	277.615	684.377	91.417	167.710	82.644	15.582
201.952	942.400	410.130	162.947	268.994	672.769	90.812	168.524	84.150	14.535
202.736	945.400	397.276	159.899	271.930	686.929	89.435	161.318	82.523	16.212
203.526	948.500	403.654	155.988	274.715	673.827	92.559	169.285	79.955	14.727
204.316	951.600	396.444	159.871	282.795	666.527	92.208	162.214	83.913	15.005
205.107	954.700	382.581	155.453	275.491	662.554	92.529	166.297	85.943	16.071
205.898	957.800	390.219	161.274	275.561	640.425	88.779	161.978	83.722	14.276
206.687	961.300	384.188	157.677	273.575	651.024	88.324	162.535	78.986	14.112
207.477	964.400	394.270	151.716	281.067	636.432	93.474	169.077	78.294	17.303
208.267	967.500	402.143	153.733	274.846	640.409	91.136	168.813	80.312	15.364
209.053	970.600	392.301	151.518	270.573	637.048	92.415	162.367	80.613	13.288
209.842	973.700	393.073	147.590	276.606	629.255	88.630	165.849	81.822	15.536
210.631	976.700	399.391	153.033	288.211	634.472	89.465	162.380	80.290	14.854
211.419	980.200	399.745	147.876	286.901	622.671	93.007	169.265	84.094	15.181
212.207	983.400	402.295	143.594	280.182	628.689	86.645	165.619	79.793	13.450
212.995	986.500	396.214	155.499	281.271	618.631	87.323	161.578	81.364	15.636
213.784	989.500	400.484	153.788	283.007	615.030	92.530	166.560	77.942	14.916
214.576	992.500	391.540	149.313	284.867	613.626	89.388	168.693	81.149	13.824
215.368	996.000	388.482	158.051	287.521	619.117	88.758	167.978	81.781	14.195
216.154	999.100	395.608	150.252	287.334	609.281	90.802	172.169	79.667	13.721
216.943	1002.200	407.044	151.953	296.760	614.046	86.372	168.026	75.743	13.109
217.732	1005.200	384.557	153.193	293.342	614.167	85.928	161.273	81.028	15.724
218.525	1008.200	408.186	152.306	287.951	610.370	89.487	168.517	80.459	15.457
219.310	1011.300	403.429	152.954	298.120	628.814	90.175	163.414	77.688	14.444
220.098	1014.800	397.196	151.909	293.103	621.392	90.166	164.941	77.676	12.168
220.887	1017.900	401.844	153.246	294.317	621.890	85.195	160.945	80.094	15.061
221.677	1020.900	406.308	153.718	296.937	631.637	89.029	168.237	76.806	16.101
222.465	1024.000	405.970	151.502	296.057	621.542	89.833	169.496	80.288	13.359
223.253	1027.100	401.772	144.915	295.810	614.722	88.525	163.557	85.061	13.963
224.041	1030.200	401.943	149.363	307.810	607.277	88.581	166.061	78.905	14.300
224.828	1033.700	415.015	152.211	302.344	613.012	87.811	160.379	76.952	13.476
225.619	1036.700	408.050	151.749	315.033	607.120	85.390	160.303	76.815	15.871
226.410	1039.800	409.006	146.996	308.909	611.514	86.268	171.094	76.949	15.025
227.201	1042.900	400.044	145.757	299.159	610.975	89.623	164.125	81.053	13.269
227.989	1046.000	415.435	156.819	311.246	606.047	92.224	164.555	81.471	14.881
228.779	1049.100	398.466	148.154	308.804	610.973	84.764	166.899	75.427	15.505
229.568	1052.600	412.683	150.537	308.289	615.913	88.099	165.552	77.170	13.793
230.358	1055.700	414.126	147.956	313.914	621.570	87.516	168.275	76.628	15.580
231.148	1058.700	409.598	148.704	319.185	610.222	88.821	165.852	80.976	15.249
231.939	1061.700	410.398	148.715	301.725	628.894	89.152	165.121	75.912	14.323
232.727	1064.800	413.316	150.752	317.866	606.216	83.735	165.483	79.480	14.568
233.519	1068.300	406.139	161.715	320.927	621.352	92.044	167.994	79.861	14.214
234.307	1071.300	416.439	151.430	323.168	616.374	88.645	163.197	75.712	14.888
235.094	1074.400	401.559	153.501	311.238	624.615	86.521	168.779	78.786	13.659
235.886	1077.500	414.054	155.841	319.912	623.503	85.450	163.252	74.565	13.632
236.675	1080.600	400.172	151.612	323.343	625.746	83.622	164.289	77.949	13.611
237.464	1083.700	413.025	151.304	324.138	623.676	90.661	165.474	80.452	11.586
238.253	1087.200	403.277	149.650	321.481	624.376	90.090	164.988	77.291	14.551
239.036	1090.200	405.192	157.014	323.244	635.904	88.145	163.109	73.821	14.029
239.824	1093.300	404.880	151.683	323.403	630.045	85.714	163.835	73.252	15.906
240.616	1096.400	399.417	143.130	324.469	611.289	84.783	166.293	70.922	14.414
241.405	1099.500	404.531	158.126	325.849	634.547	85.947	164.902	81.008	14.329
242.196	1102.500	404.942	151.292	329.877	634.658	88.099	162.860	76.311	13.307
242.989	1106.100	400.040	153.231	329.805	629.468	86.729	162.359	77.486	13.921
243.775	1109.200	397.409	154.895	313.219	628.230	82.439	162.800	77.175	16.029
244.555	1112.200	389.508	153.062	334.112	644.052	84.569	159.216	78.772	13.928
245.345	1115.300	398.791	152.479	334.639	631.662	83.347	165.780	77.377	13.260
246.134	1118.400	402.288	157.149	345.642	642.558	86.300	172.992	74.002	14.044
246.924	1121.500	411.464	155.367	329.343	647.102	87.137	170.180	73.262	14.321
247.708	1124.900	398.711	156.594	342.521	643.484	86.207	166.341	79.193	14.823
248.491	1127.900	397.673	162.402	345.358	661.416	87.822	165.914	74.605	14.013
249.274	1131.000	405.096	159.902	336.435	655.767	84.365	168.733	80.482	14.075
250.062	1134.100	401.424	161.759	340.832	650.880	83.848	162.943	74.264	13.972
250.849	1137.100	408.720	158.030	354.659	654.935	83.971	160.552	79.362	14.482
251.642	1140.200	412.912	152.853	344.582	650.573	83.160	171.245	71.537	13.353
252.423	1143.300	396.163	159.252	342.677	664.010	82.934	167.445	77.814	13.449
253.211	1146.800	394.547	151.422	351.545	673.597	90.154	169.882	74.592	14.302
253.995	1149.800	390.448	162.419	344.315	691.174	88.538	163.942	75.212	15.354
254.780	1152.800	396.462	161.046	348.972	688.274	84.373	166.819	78.945	15.308
255.569	1155.900	394.278	157.536	352.312	682.544	84.674	166.491	76.337	15.947
256.358	1159.000	401.238	163.031	356.346	690.465	85.600	168.887	73.891	14.562
257.144	1162.100	398.086	159.543	351.141	695.299	84.537	164.873	75.714	15.388
257.931	1165.000	388.683	157.206	352.358	720.154	85.737	168.574	73.038	15.735
258.717	1168.500	394.419	163.139	365.368	728.644	82.868	163.334	77.353	12.587
259.506	1171.600	394.697	166.164	358.824	746.031	80.856	170.840	76.520	12.535
260.295	1174.700	390.509	161.998	352.185	760.925	84.001	167.206	74.465	13.618
261.082	1177.800	408.430	159.591	358.770	761.941	86.348	168.313	76.097	13.223
261.871	1180.800	390.643	166.507	361.186	788.504	88.656	169.981	72.513	14.002
262.657	1183.800	392.489	169.505	358.810	820.961	86.346	161.907	77.522	15.543
263.444	1187.500	400.853	175.229	353.653	825.527	88.136	164.356	77.156	15.131
264.232	1190.700	397.931	176.381	359.699	794.843	89.674	169.923	82.565	12.634
265.021	1193.700	393.008	162.073	372.226	754.925	87.007	166.235	78.685	14.286
265.812	1195.800	383.628	158.266	365.269	742.519	85.618	171.171	76.908	14.561
266.600	1196.700	392.255	167.403	369.070	760.915	88.728	169.343	75.109	12.558
267.390	1197.300	388.824	164.791	377.360	802.916	83.125	168.069	75.254	12.976
268.177	1198.300	392.328	169.839	366.004	788.612	86.638	165.725	74.969	13.763
268.963	1199.300	380.722	157.698	383.352	753.337	87.403	164.871	77.229	13.947
269.749	1199.800	392.773	169.599	380.856	757.280	83.092	167.183	77.627	14.972
270.539	1199.800	387.701	164.481	373.191	781.604	86.993	169.751	73.883	13.251
