Wed, Jul 19, 2017	4:28 PM
 Notes: HOAc_2E-09_45 s_10 K TPD_719
 waiting time: 50.000
 time(ms)	 temp (K)	 MS1=61.297	 MS2=17.903	 MS3=28.250	 MS4=44.784	 MS5=61.297	 MS6=31.397	 MS7=68.640	 MS8=90.000
0.000	94.300	7320.000
0.167	94.300	5910.000
0.325	94.200	6240.000
0.485	94.200	6950.000
0.657	94.200	6670.000
0.831	94.200	7000.000
0.994	94.200	6840.000
1.169	94.200	6470.000
1.337	94.200	7290.000
1.510	94.200	6980.000
1.698	94.200	6830.000
1.882	94.200	7050.000
2.069	94.200	6900.000
2.237	94.200	7560.000
2.401	94.200	7140.000
2.568	94.200	7410.000
2.759	94.200	7000.000
2.986	94.200	7150.000
3.148	94.200	6960.000
3.312	94.200	7030.000
3.477	94.200	6890.000
3.650	94.200	6910.000
3.815	94.200	6860.000
3.998	94.200	7280.000
4.162	94.200	7000.000
4.328	94.200	7220.000
4.519	94.200	7410.000
4.683	94.200	7410.000
4.847	94.200	7430.000
5.023	94.200	7240.000
5.187	94.200	7230.000
5.351	94.200	7950.000
5.514	94.200	7110.000
5.679	94.200	7430.000
5.842	94.200	7250.000
6.006	94.200	7210.000
6.169	94.100	7420.000
6.334	94.100	7290.000
6.499	94.100	7230.000
6.662	94.200	7360.000
6.827	94.200	7350.000
6.990	94.200	7520.000
7.180	94.200	7730.000
7.343	94.200	7370.000
7.510	94.100	7600.000
7.685	94.100	7410.000
7.849	94.100	7400.000
8.014	94.100	7570.000
8.201	94.100	7330.000
8.364	94.100	7050.000
8.528	94.100	7350.000
8.692	94.100	7320.000
8.855	94.100	7260.000
9.018	94.100	7440.000
9.182	94.100	7280.000
9.345	94.100	7600.000
9.510	94.100	7620.000
9.673	94.100	7520.000
9.837	94.100	7440.000
10.018	94.200	7640.000
10.183	94.200	8490.000
10.349	94.200	9350.000
10.516	94.400	11240.000
10.687	94.500	11450.000
10.856	94.700	10720.000
11.028	94.800	9800.000
11.192	95.300	8780.000
11.358	95.500	8090.000
11.528	96.200	8160.000
11.697	97.000	8490.000
11.865	97.500	8100.000
12.030	98.800	8250.000
12.195	99.400	10310.000
12.376	100.900	16400.000
12.548	101.800	17060.000
12.723	103.800	13190.000
12.887	104.900	10370.000
13.051	107.300	9120.000
13.214	108.700	8830.000
13.377	111.500	8360.000
13.540	112.900	8230.000
13.705	114.500	8630.000
13.868	117.600	8290.000
14.031	120.900	8370.000
14.193	122.600	8250.000
14.356	125.900	8110.000
14.520	127.500	8440.000
14.692	130.800	8010.000
14.861	132.400	8110.000
15.036	135.600	7830.000
15.199	137.100	7940.000
15.363	140.100	7950.000
15.527	141.600	8240.000
15.691	143.000	8080.000
15.855	145.800	8330.000
16.030	148.400	7600.000
16.198	149.700	8050.000
16.360	152.100	7870.000
16.524	153.300	7980.000
16.689	155.600	7850.000
16.855	156.700	7620.000
17.037	158.900	8110.000
17.201	161.000	8400.000
17.365	162.000	7990.000
17.528	163.000	8100.000
17.719	165.000	7950.000
17.902	166.900	7670.000
18.066	167.900	8110.000
18.230	169.700	8270.000
18.393	170.600	8180.000
18.574	172.400	7890.000
18.743	174.200	7960.000
18.908	175.100	8320.000
19.083	176.900	8000.000
19.263	177.800	8180.000
19.430	179.600	8170.000
19.601	180.400	8230.000
19.764	182.200	7820.000
19.942	183.200	8180.000
20.112	185.000	8230.000
20.287	186.900	8320.000
20.451	187.800	8170.000
20.621	189.700	7940.000
20.791	190.700	8370.000
20.953	192.600	8370.000
21.118	193.600	8270.000
21.282	194.600	8350.000
21.444	196.600	8220.000
21.619	198.800	8430.000
21.781	199.800	8370.000
21.946	201.900	8620.000
22.110	202.900	8710.000
22.273	205.100	8620.000
22.438	206.200	8630.000
22.601	208.300	8890.000
22.765	209.400	8640.000
22.929	211.600	8360.000
23.093	212.800	8750.000
23.256	215.000	8570.000
23.419	215.000	8820.000
23.583	217.300	8810.000
23.770	219.500	8740.000
23.934	220.600	8670.000
24.117	222.900	8710.000
24.285	224.000	9000.000
24.448	226.300	8760.000
24.622	228.500	8770.000
24.793	230.700	9100.000
24.963	231.900	8830.000
25.143	233.000	8600.000
25.305	235.200	8660.000
25.472	237.400	8630.000
25.637	238.500	8450.000
25.801	240.700	8850.000
25.966	241.800	8320.000
26.129	244.000	8480.000
26.293	245.100	8650.000
26.457	247.200	8670.000
26.620	248.300	8690.000
26.785	249.400	8520.000
26.949	251.500	8350.000
27.113	253.700	8210.000
27.295	254.700	8720.000
27.459	256.900	8670.000
27.624	257.900	8370.000
27.787	260.100	8380.000
27.951	261.100	8150.000
28.117	263.300	8310.000
28.281	264.300	8240.000
28.446	266.400	8520.000
28.610	267.500	8210.000
28.774	269.600	8010.000
28.938	270.700	8300.000
29.103	271.700	8350.000
29.267	273.800	8320.000
29.431	275.900	8480.000
29.595	277.000	8850.000
29.759	279.100	8310.000
29.923	280.200	8290.000
30.087	281.200	8380.000
30.252	283.400	8490.000
30.437	285.500	8060.000
30.602	286.600	8350.000
30.779	288.700	8340.000
30.943	289.800	8220.000
31.107	291.900	8550.000
31.270	293.000	8530.000
31.434	295.200	8020.000
31.625	297.400	8090.000
31.793	298.500	8460.000
31.956	300.600	8120.000
32.121	301.700	8440.000
32.298	303.900	8310.000
32.463	305.000	7950.000
32.646	307.100	8610.000
32.814	308.200	8490.000
32.978	310.400	8140.000
33.142	311.400	8360.000
33.309	313.600	8570.000
33.481	314.700	7900.000
33.651	316.900	7970.000
33.819	319.000	8260.000
33.985	320.100	8320.000
34.148	322.200	8050.000
34.313	323.300	8310.000
34.477	324.400	8140.000
34.659	326.500	8360.000
34.824	328.700	8340.000
34.993	329.800	8270.000
35.158	331.900	8370.000
35.327	333.000	8020.000
35.492	334.000	8450.000
35.656	336.200	8420.000
35.821	338.400	8370.000
35.986	339.400	8010.000
36.151	340.500	8270.000
36.315	342.600	8280.000
36.479	344.800	8440.000
36.644	345.900	8110.000
36.829	348.000	8310.000
36.996	350.200	8330.000
37.164	351.200	8340.000
37.328	352.300	8230.000
37.491	354.500	8270.000
37.656	355.600	8560.000
37.821	357.700	8410.000
38.003	358.800	8320.000
38.167	360.900	8180.000
38.332	363.100	8530.000
38.497	364.200	8030.000
38.671	366.300	8410.000
38.835	367.400	8260.000
39.007	368.500	8430.000
39.171	370.700	8160.000
39.335	371.800	8590.000
39.509	373.900	8620.000
39.674	376.100	8370.000
39.838	377.100	8440.000
40.001	379.300	8400.000
40.166	380.400	8830.000
40.331	381.500	8180.000
40.494	383.600	8260.000
40.659	385.800	8520.000
40.823	386.900	8650.000
41.009	389.000	8710.000
41.174	391.200	8850.000
41.351	392.300	8710.000
41.516	393.400	8590.000
41.680	395.500	8930.000
41.845	397.700	8670.000
42.009	398.700	8780.000
42.173	400.900	8650.000
42.363	401.900	8670.000
42.531	404.100	8560.000
42.695	405.200	8890.000
42.859	407.300	8450.000
43.024	408.400	8770.000
43.189	410.500	8860.000
43.354	411.600	8610.000
43.519	413.800	8520.000
43.684	414.800	8820.000
43.849	416.900	8930.000
44.013	418.000	9010.000
44.178	420.100	8600.000
44.342	421.200	8660.000
44.507	422.300	8850.000
44.671	424.400	8500.000
44.837	426.500	8770.000
45.004	427.600	8820.000
45.170	429.700	8690.000
45.334	430.700	8650.000
45.499	432.900	8780.000
45.672	433.900	8920.000
45.837	436.000	8720.000
46.014	437.100	8660.000
46.178	439.200	8500.000
46.343	440.300	8990.000
46.508	442.400	8940.000
46.673	443.400	8710.000
46.840	445.600	8700.000
47.003	446.600	8790.000
47.167	448.800	8850.000
47.343	449.800	8840.000
47.514	452.000	8530.000
47.680	454.100	8630.000
47.846	455.200	8730.000
48.011	457.300	8430.000
48.177	458.400	8680.000
48.362	460.500	8850.000
48.526	461.600	8950.000
48.690	462.700	8810.000
48.854	464.800	8520.000
49.038	467.000	8710.000
49.202	468.100	9060.000
49.367	470.200	8970.000
49.531	472.400	8470.000
49.694	473.500	8610.000
49.858	474.600	8530.000
50.022	476.800	8370.000
50.186	477.800	8590.000
50.351	480.000	8780.000
50.534	481.100	8840.000
50.698	483.200	8860.000
50.864	484.300	8640.000
51.038	486.500	8490.000
51.203	488.600	8720.000
51.368	489.700	8860.000
51.533	491.800	9000.000
51.699	492.900	8810.000
51.863	495.100	8770.000
52.045	496.100	8780.000
52.208	498.200	8560.000
52.372	499.300	8990.000
52.537	500.400	8640.000
52.700	502.500	8940.000
52.865	503.600	8870.000
53.030	505.800	8650.000
53.193	507.900	8480.000
53.359	509.000	8730.000
53.522	511.100	8810.000
53.685	512.200	8540.000
53.848	514.300	8880.000
54.013	515.400	8680.000
54.177	517.500	8870.000
54.341	518.500	9250.000
54.504	520.700	8970.000
54.694	521.900	8800.000
54.859	524.000	8740.000
55.035	526.100	8830.000
55.199	527.200	8930.000
55.363	528.300	8980.000
55.528	530.400	8630.000
55.708	532.500	8720.000
55.871	533.500	8790.000
56.035	535.600	8900.000
56.199	536.700	8910.000
56.363	537.700	8720.000
56.527	539.800	8960.000
56.693	542.000	8910.000
56.859	543.000	8880.000
57.023	544.100	9060.000
57.186	546.200	9110.000
57.351	548.300	8620.000
57.530	549.400	8740.000
57.695	551.600	8890.000
57.859	552.600	8840.000
58.024	554.800	8880.000
58.187	555.800	8620.000
58.366	558.000	8920.000
58.529	559.000	8900.000
58.693	561.200	8730.000
58.858	562.200	8770.000
59.022	564.400	8920.000
59.186	565.400	8960.000
59.350	567.600	8960.000
59.516	568.700	9080.000
59.680	570.800	8850.000
59.844	571.800	9020.000
60.010	574.000	9300.000
60.174	575.000	8830.000
60.337	576.100	9020.000
60.502	578.300	8860.000
60.667	580.400	8770.000
60.831	581.400	8640.000
60.994	583.600	9140.000
61.157	584.600	9080.000
61.321	586.800	8950.000
61.484	587.800	8880.000
61.647	589.900	8880.000
61.810	591.000	8680.000
61.973	592.100	8830.000
62.156	594.200	9030.000
62.319	596.300	8910.000
62.483	597.300	8840.000
62.648	599.500	8890.000
62.813	600.500	8900.000
62.977	602.700	8980.000
63.141	603.700	8990.000
63.305	605.800	9170.000
63.470	606.900	8900.000
63.635	609.000	8740.000
63.799	610.100	8830.000
