Wed, Jul 19, 2017	1:48 PM
 Notes: HOAc_5E-09_150 s_high point density_719
 waiting time: 50.000
 time(ms)	 temp (K)	 MS1=61.297	 MS2=31.296	 MS3=28.250	 MS4=44.784	 MS5=61.297	 MS6=68.073	 MS7=68.640	 MS8=90.000
0.000	90.800	82680.000
0.168	90.800	82180.000
0.331	90.800	85190.000
0.506	90.800	86980.000
0.678	90.900	88030.000
0.853	90.900	87520.000
1.012	90.900	88360.000
1.206	90.900	89940.000
1.375	90.900	90040.000
1.551	90.900	89670.000
1.736	90.900	89820.000
1.910	90.900	89550.000
2.084	90.900	91190.000
2.262	90.900	91480.000
2.435	90.900	90790.000
2.604	90.900	89710.000
2.771	90.900	91220.000
2.934	90.900	91720.000
3.096	90.900	92500.000
3.259	90.900	91910.000
3.423	90.900	92120.000
3.603	90.900	91680.000
3.771	90.900	91490.000
3.942	90.900	91740.000
4.106	91.000	91580.000
4.293	90.900	91110.000
4.462	90.900	90830.000
4.626	90.900	92140.000
4.790	90.900	92020.000
4.953	90.900	90820.000
5.129	90.900	92130.000
5.298	90.900	91880.000
5.470	91.000	91690.000
5.634	91.000	91450.000
5.799	90.900	91960.000
5.962	90.900	90790.000
6.125	90.900	91750.000
6.310	91.000	90990.000
6.473	90.900	92910.000
6.638	90.900	92520.000
6.801	90.900	92030.000
6.975	90.900	91480.000
7.139	90.900	91120.000
7.304	90.900	91420.000
7.467	91.000	90950.000
7.644	91.000	91510.000
7.811	91.000	90940.000
7.975	91.000	89980.000
8.155	91.000	89930.000
8.318	91.000	88770.000
8.481	91.000	89900.000
8.655	91.000	90740.000
8.818	91.000	89270.000
8.981	91.100	89860.000
9.147	91.100	90150.000
9.310	91.200	90510.000
9.481	91.200	90180.000
9.655	91.300	88580.000
9.821	91.300	89700.000
9.995	91.400	89440.000
10.159	91.400	89150.000
10.341	91.600	92040.000
10.516	91.600	97230.000
10.708	91.800	99350.000
10.882	92.000	96240.000
11.056	92.100	94520.000
11.229	92.300	94460.000
11.394	92.500	93360.000
11.557	92.800	93730.000
11.726	93.100	92820.000
11.890	93.300	94200.000
12.063	93.700	93780.000
12.229	93.900	94010.000
12.391	94.100	93600.000
12.577	94.600	91970.000
12.740	94.900	94070.000
12.913	95.400	94490.000
13.077	96.000	94070.000
13.241	96.300	97170.000
13.405	96.600	97150.000
13.569	97.200	97790.000
13.732	97.900	98020.000
13.895	98.300	98650.000
14.059	99.100	98460.000
14.233	99.500	99590.000
14.415	100.300	98320.000
14.580	100.700	97260.000
14.777	101.500	97840.000
14.947	102.400	97900.000
15.112	102.800	96800.000
15.275	102.800	97390.000
15.438	104.100	95900.000
15.611	105.000	95500.000
15.776	105.400	94390.000
15.939	106.300	93540.000
16.102	106.700	94490.000
16.281	107.600	94540.000
16.445	108.000	93570.000
16.609	108.900	93400.000
16.777	109.300	92300.000
16.942	110.100	93370.000
17.111	110.500	92680.000
17.277	111.200	92490.000
17.441	111.600	92100.000
17.605	112.400	91310.000
17.780	113.100	91670.000
17.945	113.500	91150.000
18.123	113.900	89910.000
18.292	114.600	89840.000
18.465	115.200	90110.000
18.630	115.600	89040.000
18.795	116.200	90160.000
18.969	116.600	88830.000
19.137	117.200	89310.000
19.302	117.500	88540.000
19.484	118.200	88820.000
19.672	118.700	87680.000
19.836	119.000	88780.000
20.000	119.600	87980.000
20.164	120.000	88320.000
20.327	120.300	88020.000
20.491	120.800	87880.000
20.670	121.400	87440.000
20.834	121.700	87900.000
21.003	122.300	87470.000
21.176	122.500	86990.000
21.341	123.100	87340.000
21.505	123.400	86750.000
21.680	123.900	86560.000
21.845	124.200	86100.000
22.018	124.800	88360.000
22.207	125.300	87510.000
22.371	125.600	87040.000
22.535	126.200	87660.000
22.700	126.500	85760.000
22.864	126.800	85150.000
23.044	127.300	86800.000
23.208	127.900	87010.000
23.372	128.200	86490.000
23.536	128.800	87800.000
23.700	129.100	87390.000
23.864	129.700	85750.000
24.028	130.000	86430.000
24.193	130.600	86570.000
24.376	131.200	85580.000
24.540	131.500	86000.000
24.705	131.800	86390.000
24.870	132.400	86790.000
25.048	133.100	87170.000
25.212	133.400	86470.000
25.376	133.700	87350.000
25.540	134.300	86940.000
25.704	134.700	86610.000
25.874	135.300	86600.000
26.046	135.900	87340.000
26.210	136.300	86820.000
26.374	136.600	87340.000
26.552	137.300	86830.000
26.717	137.900	86320.000
26.895	138.300	87600.000
27.059	138.600	87460.000
27.225	139.300	87830.000
27.390	140.000	88480.000
27.589	140.700	89070.000
27.762	141.000	89880.000
27.928	141.700	89040.000
28.185	142.400	89960.000
28.349	143.000	90310.000
28.514	143.400	90780.000
28.678	144.100	92020.000
28.843	144.400	93310.000
29.006	145.100	93970.000
29.171	145.500	96460.000
29.337	146.100	98580.000
29.501	146.400	101790.000
29.666	147.100	104580.000
29.844	147.500	106500.000
30.009	148.100	110270.000
30.175	148.500	113750.000
30.340	149.100	119910.000
30.506	149.400	122680.000
30.695	150.100	129400.000
30.861	150.400	135420.000
31.031	151.100	141760.000
31.204	151.400	150750.000
31.374	152.100	159500.000
31.540	152.700	166490.000
31.708	153.000	174740.000
31.877	153.700	185680.000
32.052	154.000	193530.000
32.218	154.700	203600.000
32.409	155.000	210860.000
32.579	155.600	219330.000
32.757	156.300	230640.000
32.921	156.600	240370.000
33.096	157.200	250390.000
33.261	157.500	259370.000
33.424	157.800	269950.000
33.604	158.500	281750.000
33.768	159.100	292730.000
33.933	159.400	305060.000
34.097	160.100	316260.000
34.263	160.400	326670.000
34.427	161.000	338930.000
34.607	161.300	347910.000
34.772	162.000	355480.000
34.937	162.600	369340.000
35.105	162.900	380920.000
35.271	163.600	397810.000
35.444	163.900	411280.000
35.608	164.200	427110.000
35.773	164.800	445980.000
35.963	165.500	468710.000
36.144	165.800	496610.000
36.319	166.400	525090.000
36.492	167.100	546320.000
36.658	167.300	565410.000
36.829	167.700	578630.000
36.993	168.300	574020.000
37.158	169.000	554750.000
37.321	169.300	536200.000
37.486	170.000	530520.000
37.652	170.300	532560.000
37.816	170.900	546900.000
37.984	171.200	567780.000
38.151	171.900	588580.000
38.314	172.200	617450.000
38.479	172.900	652450.000
38.645	173.200	690970.000
38.809	173.800	728290.000
38.975	174.200	774200.000
39.153	174.800	828430.000
39.327	175.100	880420.000
39.492	175.800	928340.000
39.656	176.100	970620.000
39.821	176.400	1024150.000
39.999	177.100	1056510.000
40.164	177.700	1094970.000
40.327	178.100	1125630.000
40.493	178.700	1149130.000
40.658	179.100	1161520.000
40.829	179.700	1180740.000
40.995	180.400	1177330.000
41.158	180.700	1171360.000
41.323	181.400	1158050.000
41.486	181.700	1133660.000
41.655	182.000	1091200.000
41.821	182.700	1063860.000
41.985	183.000	1027570.000
42.149	183.700	989340.000
42.324	184.000	951100.000
42.488	184.700	910010.000
42.654	185.000	865390.000
42.819	185.600	813550.000
42.983	185.900	765370.000
43.160	186.600	716820.000
43.324	187.200	672260.000
43.487	187.600	631210.000
43.651	188.200	586500.000
43.815	188.600	546700.000
44.001	189.200	509720.000
44.167	189.600	474750.000
44.352	190.200	439570.000
44.518	190.800	413170.000
44.684	191.200	390230.000
44.848	191.800	364880.000
45.013	192.100	348750.000
45.184	192.800	329910.000
45.349	193.100	315510.000
45.513	193.400	302260.000
45.678	194.100	294020.000
45.844	194.700	283100.000
46.009	195.000	274850.000
46.173	195.700	269820.000
46.338	196.000	266290.000
46.502	196.700	258530.000
46.669	197.000	255110.000
46.833	197.600	250160.000
46.999	198.000	245650.000
47.163	198.600	240030.000
47.327	199.000	238890.000
47.515	199.600	234570.000
47.688	199.900	229680.000
47.875	200.600	228140.000
48.040	201.200	225000.000
48.218	201.600	220450.000
48.382	201.900	221130.000
48.549	202.500	218210.000
48.717	202.800	215560.000
48.881	203.500	213370.000
49.047	203.800	211740.000
49.211	204.400	208670.000
49.375	205.100	208040.000
49.540	205.400	207270.000
49.705	206.100	203960.000
49.870	206.400	201770.000
50.035	206.700	198870.000
50.199	207.400	197430.000
50.362	208.000	194220.000
50.537	208.400	193130.000
50.701	209.000	193400.000
50.887	209.300	193020.000
51.053	210.000	187500.000
51.217	210.600	186940.000
51.383	210.900	187130.000
51.547	211.300	185670.000
51.717	211.900	185770.000
51.882	212.600	182810.000
52.046	212.900	182000.000
52.212	213.600	180610.000
52.378	213.900	177800.000
52.541	214.500	179710.000
52.706	214.800	179500.000
52.870	215.500	176900.000
53.036	215.800	174960.000
53.200	216.100	171430.000
53.366	216.800	172230.000
53.531	217.400	171250.000
53.696	217.800	171230.000
53.861	218.100	167750.000
54.026	218.700	166030.000
54.190	219.000	167870.000
54.355	219.700	167250.000
54.520	220.300	165900.000
54.687	220.700	163400.000
54.876	221.300	161310.000
55.041	221.700	163890.000
55.207	222.300	162400.000
55.373	222.600	160840.000
55.562	223.300	157310.000
55.726	223.600	158110.000
55.891	224.300	157790.000
56.056	224.600	156800.000
56.220	225.300	155930.000
56.385	225.300	156400.000
56.550	226.200	154650.000
56.714	226.900	154300.000
56.878	227.200	153180.000
57.067	227.900	152420.000
57.233	228.200	152240.000
57.396	228.800	151150.000
57.561	229.200	149260.000
57.727	229.800	149060.000
57.892	230.200	149760.000
58.057	230.800	149290.000
58.224	231.100	146990.000
58.389	231.800	147680.000
58.553	232.100	144810.000
58.717	232.500	146280.000
58.882	233.100	147490.000
59.049	233.400	145080.000
59.246	234.100	143410.000
59.411	234.700	142800.000
59.577	235.400	142420.000
59.742	235.700	141600.000
59.911	236.300	140550.000
60.078	236.700	139160.000
60.242	237.000	139410.000
60.406	237.600	138870.000
60.572	238.300	137450.000
60.737	238.600	137840.000
60.902	238.900	136180.000
61.082	239.600	135890.000
61.246	240.200	135280.000
61.413	240.600	134410.000
61.579	241.200	134550.000
61.744	241.500	133080.000
61.909	241.900	131820.000
62.075	242.500	132000.000
62.241	243.200	130450.000
62.406	243.500	129560.000
62.571	243.500	129230.000
62.734	244.500	128210.000
62.900	244.800	127270.000
63.074	245.500	125040.000
63.238	245.800	126310.000
63.405	246.400	125540.000
63.571	247.100	124610.000
63.736	247.400	125200.000
63.920	248.000	122370.000
64.087	248.400	123240.000
64.251	249.000	122590.000
64.417	249.700	121000.000
64.586	250.000	120730.000
64.751	250.300	120540.000
64.916	251.000	120600.000
65.081	251.600	118660.000
65.247	252.000	117840.000
65.412	252.300	118580.000
65.578	252.900	118590.000
65.743	253.600	117750.000
65.909	253.900	117930.000
66.100	254.600	116640.000
66.265	254.900	116830.000
66.430	255.500	114700.000
66.595	255.900	114550.000
66.761	256.200	115020.000
66.946	256.800	114240.000
67.116	257.500	115110.000
67.286	258.200	114490.000
67.456	258.500	112840.000
67.624	259.100	113760.000
67.789	259.500	112140.000
67.953	259.800	111010.000
68.121	260.400	111930.000
68.285	261.100	111330.000
68.450	261.400	109990.000
68.615	262.000	111120.000
68.792	262.000	110130.000
68.956	263.000	108800.000
69.122	263.300	108710.000
69.287	264.000	108990.000
69.458	264.300	109620.000
69.625	264.700	107610.000
69.789	265.300	108450.000
69.954	266.000	108230.000
70.119	266.300	106570.000
70.283	266.900	107170.000
70.450	267.300	105320.000
70.615	267.900	105430.000
70.804	268.200	104740.000
70.968	268.900	103910.000
71.142	269.500	104790.000
71.308	269.900	103620.000
71.475	270.500	102940.000
71.652	270.800	103940.000
71.817	271.500	103660.000
71.982	271.800	103190.000
72.147	272.500	102730.000
72.312	272.800	102630.000
72.488	273.400	103440.000
72.654	273.800	103270.000
72.819	274.400	104430.000
72.985	274.700	103160.000
73.150	275.400	103090.000
73.315	275.700	101540.000
73.480	276.300	101460.000
73.646	276.700	101450.000
73.812	277.300	100730.000
73.976	277.700	101960.000
74.142	278.300	100330.000
74.306	278.600	99120.000
74.472	279.000	98700.000
74.656	279.600	99030.000
74.821	280.300	99350.000
74.990	280.900	97120.000
75.158	281.200	98820.000
75.323	281.900	98510.000
75.489	282.200	98400.000
75.655	282.900	97540.000
75.842	283.200	97280.000
76.034	283.900	97040.000
76.200	284.500	96960.000
76.365	284.900	97010.000
76.529	285.500	96600.000
76.695	285.800	96260.000
76.861	286.500	97400.000
77.027	286.800	96280.000
77.192	287.500	94680.000
77.363	287.800	94650.000
77.530	288.500	95750.000
77.695	288.800	94430.000
77.860	289.100	94950.000
78.025	289.800	94480.000
78.189	290.400	94030.000
78.355	290.700	93540.000
78.519	291.400	94880.000
78.684	291.700	94040.000
78.850	292.400	93830.000
79.015	292.700	93890.000
79.180	293.100	93870.000
79.345	293.700	93680.000
79.511	294.300	93220.000
79.677	294.700	92270.000
79.851	295.300	91980.000
80.017	295.700	92340.000
80.182	296.300	92950.000
80.345	296.700	92390.000
80.512	297.300	92120.000
80.677	297.600	91320.000
80.842	298.300	92220.000
81.005	298.600	90000.000
81.170	298.900	90970.000
81.360	299.600	91120.000
81.526	300.200	91490.000
81.692	300.600	91410.000
81.856	301.200	90200.000
82.020	301.900	90770.000
82.198	302.200	90510.000
82.363	302.500	89310.000
82.528	303.100	91230.000
82.699	303.800	89230.000
82.865	304.200	89520.000
83.030	304.800	89570.000
83.195	305.100	89450.000
83.359	305.800	89550.000
83.522	306.100	88200.000
83.687	306.800	88060.000
83.850	307.100	88620.000
84.035	307.700	88520.000
84.225	308.400	87610.000
84.390	308.700	87110.000
84.555	309.000	88150.000
84.719	309.700	87390.000
84.883	310.300	87870.000
85.048	310.700	86620.000
85.213	311.000	85320.000
85.377	311.600	86350.000
85.543	312.000	87870.000
85.707	312.600	85950.000
85.872	313.300	87070.000
86.036	313.600	86100.000
86.202	313.900	87410.000
86.367	314.600	87320.000
86.533	315.200	86420.000
86.699	315.500	86270.000
86.863	315.800	86140.000
87.027	316.500	86870.000
87.192	316.800	86430.000
87.356	317.500	85040.000
87.520	317.800	85910.000
87.685	318.400	85350.000
87.850	318.800	84730.000
88.013	319.400	84470.000
88.180	320.100	84530.000
88.346	320.400	84010.000
88.510	321.000	84270.000
88.675	321.400	84280.000
88.839	321.700	85050.000
89.004	322.300	85260.000
89.170	323.000	83350.000
89.334	323.300	84820.000
89.498	323.600	83800.000
89.662	324.300	83190.000
89.845	325.000	82040.000
90.010	325.300	82950.000
90.174	325.900	82530.000
90.337	326.200	81360.000
90.523	326.600	82210.000
90.688	327.200	82280.000
90.853	327.900	82770.000
91.017	328.200	82140.000
91.182	328.900	82050.000
91.347	329.200	83130.000
91.512	329.900	82770.000
91.676	330.200	81890.000
91.840	330.500	82710.000
92.004	331.100	81890.000
92.181	331.800	82500.000
92.345	332.100	81970.000
92.510	332.800	82070.000
92.675	333.100	81530.000
92.840	333.700	81480.000
93.004	334.000	80800.000
93.168	334.700	81640.000
93.332	335.000	82310.000
93.496	335.700	81410.000
93.660	336.000	80900.000
93.824	336.700	80770.000
93.988	337.000	79980.000
94.174	337.600	81400.000
94.338	338.000	80300.000
94.504	338.600	79820.000
94.668	339.300	80330.000
94.833	339.600	79270.000
94.998	339.900	79670.000
95.163	340.600	79300.000
95.329	341.200	79880.000
95.494	341.600	78780.000
95.666	341.900	79100.000
95.831	342.600	79640.000
96.007	342.900	78940.000
96.173	343.500	79460.000
96.338	344.200	79300.000
96.504	344.500	78800.000
96.669	345.100	79020.000
96.834	345.500	78660.000
96.999	346.100	78840.000
97.164	346.500	77080.000
97.329	347.100	78410.000
97.494	347.400	78650.000
97.659	347.800	77770.000
97.824	348.400	78610.000
97.989	349.100	77000.000
98.154	349.400	79220.000
98.319	350.000	78410.000
98.483	350.400	77890.000
98.649	351.000	77760.000
98.815	351.300	77540.000
98.979	352.000	77040.000
99.144	352.300	78190.000
99.309	353.000	77390.000
99.474	353.300	77290.000
99.639	353.900	78200.000
99.804	354.300	77610.000
99.995	354.900	76570.000
100.162	355.600	77440.000
100.328	355.900	76460.000
100.493	356.200	77310.000
100.658	356.900	76260.000
100.823	357.200	77330.000
100.988	357.800	77890.000
101.153	358.200	77380.000
101.318	358.800	76010.000
101.500	359.500	77330.000
101.677	359.800	75930.000
101.868	360.400	76220.000
102.033	360.800	75120.000
102.197	361.400	75260.000
102.363	361.800	76200.000
102.529	362.400	76270.000
102.694	362.700	75850.000
102.861	363.400	75430.000
103.026	364.100	75050.000
103.192	364.400	75670.000
103.358	364.700	76020.000
103.523	365.300	76610.000
103.690	365.700	75920.000
103.855	366.300	75690.000
104.021	367.000	75060.000
104.186	367.300	75180.000
104.351	367.700	75540.000
104.516	368.300	75140.000
104.681	369.000	75370.000
104.849	369.300	74710.000
105.015	370.000	75000.000
105.179	370.300	74400.000
105.343	370.600	74730.000
105.515	371.200	75160.000
105.681	371.900	75520.000
105.846	372.200	75520.000
106.011	372.500	75090.000
106.176	373.200	74540.000
106.342	373.800	74490.000
106.508	374.200	74970.000
106.673	374.800	74740.000
106.838	375.200	74870.000
107.004	375.800	74020.000
107.183	376.100	74760.000
107.354	376.700	73450.000
107.522	377.100	73370.000
107.687	377.400	73900.000
107.852	378.000	73050.000
108.018	378.700	73400.000
108.183	379.100	73820.000
108.348	379.400	72970.000
108.513	380.000	73250.000
108.678	380.700	73770.000
108.843	381.000	72720.000
109.007	381.600	72490.000
109.173	382.000	72980.000
109.340	382.600	73050.000
109.506	383.000	74060.000
109.672	383.600	72190.000
109.836	383.900	72890.000
110.028	384.600	72430.000
110.195	385.300	72920.000
110.359	385.600	72010.000
110.524	386.200	73060.000
110.689	386.500	74000.000
110.854	386.900	72100.000
111.019	387.500	72490.000
111.184	387.800	72100.000
111.348	388.500	72580.000
111.514	389.200	72630.000
111.679	389.500	72120.000
111.847	390.200	72960.000
112.013	390.500	72220.000
112.178	391.100	72150.000
112.343	391.400	72650.000
112.509	391.800	72200.000
112.674	392.400	72970.000
112.841	392.800	73560.000
113.006	393.400	71550.000
113.171	394.000	71880.000
113.337	394.400	72340.000
113.502	395.000	70980.000
113.667	395.400	72070.000
113.832	395.700	72110.000
113.997	396.300	71230.000
114.162	397.000	70720.000
114.327	397.300	71510.000
114.515	398.000	71940.000
114.696	398.300	71220.000
114.860	398.900	71310.000
115.026	399.600	71620.000
115.191	399.900	71900.000
115.357	400.200	70760.000
115.522	400.900	71700.000
115.687	401.200	70600.000
115.853	401.900	71690.000
116.019	402.500	70950.000
116.199	402.900	70660.000
116.365	403.500	71440.000
116.529	403.800	72170.000
116.695	404.500	71390.000
116.869	404.800	70810.000
117.035	405.400	71760.000
117.201	405.800	71230.000
117.372	406.400	72290.000
117.543	406.800	71170.000
117.709	407.400	73570.000
117.875	408.100	70880.000
118.040	408.400	71710.000
118.205	409.000	71930.000
118.370	409.400	71630.000
118.536	409.700	71750.000
118.702	410.300	71260.000
118.878	411.000	71310.000
119.053	411.300	71930.000
119.218	411.900	72740.000
119.401	412.300	70660.000
119.567	412.900	72700.000
119.732	413.200	71340.000
119.897	413.900	71100.000
120.062	414.200	70420.000
120.228	414.500	70360.000
120.394	415.200	71160.000
120.560	415.800	71120.000
120.725	416.200	72550.000
120.892	416.800	71950.000
121.058	417.200	71290.000
121.223	417.800	71690.000
121.387	418.100	71640.000
121.551	418.700	71800.000
121.715	419.100	71490.000
121.879	419.700	71470.000
122.045	420.000	71330.000
122.209	420.700	70120.000
122.374	421.000	69970.000
122.538	421.700	71290.000
122.703	422.000	70640.000
122.868	422.600	70480.000
123.033	423.000	70830.000
123.209	423.600	69330.000
123.372	424.000	70260.000
123.537	424.600	69740.000
123.704	424.900	70620.000
123.870	425.600	69520.000
124.035	425.900	70630.000
124.199	426.500	68950.000
124.364	426.900	69330.000
124.529	427.500	69420.000
124.693	427.800	68540.000
124.860	428.500	69690.000
125.027	428.800	69070.000
125.193	429.400	68830.000
125.359	429.800	68170.000
125.525	430.400	68680.000
125.689	430.800	68250.000
125.854	431.400	68290.000
126.018	432.100	68020.000
126.183	432.400	68790.000
126.347	432.700	67830.000
126.511	433.400	68930.000
126.677	434.000	67800.000
126.841	434.300	68210.000
127.005	434.600	68310.000
127.171	435.300	67370.000
127.336	435.600	68080.000
127.501	436.300	67990.000
127.665	436.900	68230.000
127.831	437.200	66710.000
127.995	437.500	67240.000
128.159	437.900	67150.000
128.324	438.500	67000.000
128.500	439.100	67700.000
128.665	439.800	67790.000
128.831	440.100	66760.000
128.996	440.400	66400.000
129.161	441.100	67280.000
129.326	441.400	65800.000
129.499	442.100	67190.000
129.663	442.700	66660.000
129.854	443.000	66840.000
130.020	443.700	66870.000
130.185	444.000	66290.000
130.350	444.300	66720.000
130.515	445.000	65860.000
130.697	445.600	66650.000
130.862	445.900	66310.000
131.027	446.600	65360.000
131.193	447.200	66760.000
131.357	447.600	66480.000
131.534	448.200	65880.000
131.700	448.500	65620.000
131.889	449.200	65170.000
132.055	449.500	65260.000
132.222	450.200	65300.000
132.403	450.500	65650.000
132.570	451.200	65650.000
132.734	451.800	66320.000
132.907	452.100	65540.000
133.078	452.800	65120.000
133.249	453.100	64920.000
133.423	453.800	65390.000
133.590	454.100	65350.000
133.755	454.800	63800.000
133.930	455.100	65050.000
134.132	455.700	64590.000
134.315	456.400	64180.000
134.480	456.400	64990.000
134.645	457.400	64640.000
134.811	457.700	63890.000
134.976	458.300	64170.000
135.164	459.000	65110.000
135.358	459.300	64420.000
135.544	460.000	64160.000
135.716	460.600	65150.000
135.893	460.900	63350.000
136.063	461.600	63870.000
136.252	461.900	63650.000
136.418	462.600	63910.000
136.591	462.900	64200.000
136.762	463.500	63550.000
136.937	464.200	62960.000
137.102	464.500	63010.000
137.278	465.200	62570.000
137.451	465.500	63710.000
137.618	466.100	62580.000
137.791	466.800	62900.000
137.957	467.100	65080.000
138.151	467.800	63420.000
138.316	468.100	63860.000
138.481	468.800	62800.000
138.646	469.100	63080.000
138.810	469.700	63210.000
138.975	470.100	63900.000
139.139	470.700	63490.000
139.305	471.000	63510.000
139.470	471.400	62600.000
139.635	472.000	62920.000
139.801	472.600	62570.000
139.967	473.000	62120.000
140.131	473.600	61660.000
140.295	473.900	61610.000
140.459	474.600	62930.000
140.623	474.900	61900.000
140.788	474.900	62940.000
140.953	475.900	62660.000
141.118	476.200	62300.000
141.283	476.800	62150.000
141.447	477.500	63040.000
141.612	477.800	61830.000
141.777	478.100	62640.000
141.942	478.800	62180.000
142.106	479.400	61970.000
142.271	479.800	61960.000
142.436	480.100	60810.000
142.600	480.700	62330.000
142.765	481.400	63050.000
142.930	481.700	62540.000
143.095	482.300	61980.000
143.260	482.700	61510.000
143.425	483.300	61980.000
143.590	483.700	61900.000
143.769	484.300	62200.000
143.934	484.700	61870.000
144.100	485.300	61700.000
144.264	485.600	62170.000
144.429	486.300	60890.000
144.595	486.600	61660.000
144.760	487.300	61560.000
144.925	487.600	61450.000
145.108	488.300	60720.000
145.274	488.900	61230.000
145.439	489.200	61950.000
145.605	489.500	61250.000
145.771	490.200	61810.000
145.936	490.800	60950.000
146.102	491.200	60900.000
146.267	491.500	61620.000
146.432	492.100	60240.000
146.598	492.800	60990.000
146.764	493.100	61820.000
146.929	493.100	60140.000
147.095	494.100	60890.000
147.266	494.400	60650.000
147.431	495.100	60230.000
147.596	495.700	59760.000
147.773	496.100	60230.000
147.948	496.700	60600.000
148.113	497.000	60680.000
148.297	497.700	60260.000
148.472	498.300	60990.000
148.672	499.000	59350.000
148.844	499.300	60310.000
149.020	499.600	60970.000
149.188	500.300	60410.000
149.356	500.600	60130.000
149.521	501.300	60250.000
149.687	501.900	61230.000
149.865	502.200	60200.000
150.039	502.900	59670.000
150.230	503.500	59180.000
150.401	503.800	59740.000
150.568	504.500	61040.000
150.734	504.800	59820.000
150.907	505.400	59430.000
151.081	505.800	59570.000
151.255	506.400	58720.000
151.430	507.000	59360.000
151.600	507.400	60780.000
151.776	508.000	58710.000
151.952	508.400	60350.000
152.117	509.000	60120.000
152.300	509.300	60450.000
152.466	510.000	59290.000
152.637	510.300	59360.000
152.812	510.900	59400.000
152.986	511.600	59020.000
153.159	511.900	59610.000
153.326	512.200	60420.000
153.500	512.900	59550.000
153.676	513.500	58950.000
153.841	513.800	59770.000
154.007	514.500	59280.000
154.175	515.100	58520.000
154.341	515.500	59020.000
154.509	515.800	58220.000
154.676	516.400	58290.000
154.842	517.100	58940.000
155.007	517.400	58590.000
155.199	517.700	58590.000
155.364	518.400	57470.000
155.530	519.000	58580.000
155.695	519.400	58960.000
155.859	520.000	57830.000
156.024	520.300	58110.000
156.188	521.000	57460.000
156.352	521.300	57820.000
156.518	521.900	57100.000
156.683	522.200	56590.000
156.848	522.900	56930.000
157.013	523.200	58130.000
157.178	523.900	57880.000
157.343	524.200	57260.000
157.508	524.900	56810.000
157.674	525.200	56880.000
157.839	525.800	56750.000
158.004	526.100	55100.000
158.169	526.800	58150.000
158.334	527.100	57850.000
158.525	527.800	56600.000
158.691	528.400	58000.000
158.858	528.800	56430.000
159.023	529.400	57320.000
159.189	529.400	58130.000
159.374	530.400	59630.000
159.547	530.700	58570.000
159.714	531.300	59520.000
159.880	531.700	58250.000
160.046	532.300	58810.000
160.211	532.600	58830.000
160.376	533.000	57870.000
160.541	533.600	58010.000
160.705	533.900	58050.000
160.871	534.600	57510.000
161.036	535.200	57340.000
161.201	535.600	57950.000
161.366	536.200	58000.000
161.532	536.500	57580.000
161.701	537.200	57390.000
161.865	537.500	57650.000
162.030	538.100	57800.000
162.197	538.500	58750.000
162.361	539.100	57020.000
162.525	539.400	57910.000
162.689	540.100	57830.000
162.853	540.400	57460.000
163.029	541.000	56990.000
163.195	541.400	57260.000
163.360	542.000	56940.000
163.525	542.400	57060.000
163.690	543.000	56580.000
163.854	543.300	57670.000
164.018	544.000	56850.000
164.184	544.300	56340.000
164.350	544.900	57000.000
164.515	545.200	58400.000
164.680	545.900	57400.000
164.845	546.500	56840.000
165.009	546.500	56600.000
165.175	547.500	57240.000
165.340	547.800	56110.000
165.553	548.500	57220.000
165.717	548.800	56670.000
165.893	549.500	56990.000
166.058	549.800	56410.000
166.224	550.400	56590.000
166.388	550.800	57550.000
166.552	551.400	55830.000
166.717	552.100	56640.000
166.882	552.400	56650.000
167.046	552.700	56170.000
167.229	553.300	55420.000
167.394	554.000	55710.000
167.559	554.300	55610.000
167.723	555.000	56300.000
167.888	555.300	56280.000
168.053	556.000	57040.000
168.218	556.300	56540.000
168.383	556.900	55880.000
168.548	557.300	56310.000
168.712	557.900	55900.000
168.901	558.200	54960.000
169.066	558.900	55190.000
169.230	559.200	55820.000
169.394	559.500	56140.000
169.560	560.200	54970.000
169.726	560.800	55860.000
169.891	561.100	56040.000
170.055	561.800	55710.000
170.220	562.100	55190.000
170.385	562.800	56080.000
170.550	563.100	56170.000
170.716	563.700	55630.000
170.880	564.000	55470.000
171.045	564.700	56000.000
171.211	565.000	55710.000
171.376	565.400	55150.000
171.541	566.000	55860.000
171.705	566.300	56200.000
171.869	567.000	54980.000
172.035	567.600	55490.000
172.199	567.900	55800.000
172.363	568.600	55020.000
172.527	568.900	56090.000
172.693	569.500	55370.000
172.858	569.900	55140.000
173.024	570.600	56080.000
173.190	570.900	54950.000
173.356	571.500	56090.000
173.521	571.800	55540.000
173.686	572.500	54640.000
173.851	572.800	54100.000
174.015	573.500	56070.000
174.180	573.800	55270.000
174.346	574.400	54680.000
174.510	574.700	54460.000
174.675	575.400	55070.000
174.840	575.700	54010.000
175.005	576.300	54940.000
175.178	576.600	54800.000
175.344	577.300	54850.000
175.508	577.600	55450.000
175.680	578.300	54480.000
175.846	578.600	54720.000
176.012	579.200	55250.000
176.178	579.600	54450.000
176.343	580.200	54760.000
176.508	580.800	54870.000
176.673	581.200	54810.000
176.839	581.500	54200.000
177.003	582.100	55070.000
177.168	582.800	54220.000
177.333	583.100	53960.000
177.498	583.400	54520.000
177.663	584.100	55230.000
177.829	584.700	55380.000
177.995	585.000	55370.000
178.161	585.400	54160.000
178.327	586.000	54560.000
178.493	586.300	53390.000
178.658	587.000	54490.000
178.823	587.600	54460.000
178.989	587.900	54230.000
179.154	588.300	54370.000
179.319	588.900	54320.000
179.485	589.600	53890.000
179.650	589.900	53520.000
179.815	590.200	54230.000
179.981	590.800	53300.000
180.146	591.200	53650.000
180.312	591.800	53990.000
180.477	592.500	53450.000
180.643	592.800	53510.000
180.808	593.400	54350.000
180.973	593.800	53810.000
181.138	594.400	53750.000
181.302	594.700	53450.000
181.467	595.100	53280.000
181.632	595.700	53550.000
181.817	596.000	53230.000
181.981	596.700	54230.000
182.145	597.300	54130.000
182.310	597.600	53310.000
182.474	597.900	52910.000
182.639	598.600	53880.000
182.804	599.200	53280.000
182.969	599.600	52780.000
183.151	600.200	53030.000
183.317	600.600	52830.000
183.482	601.200	53370.000
183.645	601.500	53610.000
183.810	602.100	52950.000
183.976	602.500	53740.000
184.142	603.100	53630.000
184.307	603.400	52920.000
