Mon, Oct 16, 2017	11:38 AM
 Notes: GUA_top chamber_3.9E-09_30 sec__101617
 waiting time: 50.000
 time(s)	 temp (K)	 MS1=1.971	 MS2=14.708	 MS3=27.810	 MS4=125.586	 MS5=109.505	 MS6=125.586	 MS7=109.505	 MS8=125.586
0.000	98.100	2653.108	373.756	8072.984	8.296
0.852	98.100	2680.087	363.856	8085.720	8.512
1.720	98.100	2641.487	372.830	8052.784	8.435
2.596	98.200	2633.647	350.985	7987.853	8.273
3.463	98.200	2679.214	357.436	8014.230	8.571
4.327	98.200	2678.602	365.596	8055.407	8.894
5.236	98.300	2654.460	370.685	8118.631	8.566
6.117	98.300	2627.398	374.313	8158.547	8.402
7.000	98.300	2694.593	375.626	8194.833	8.151
7.868	98.300	2703.348	374.845	8554.714	8.639
8.735	98.400	2664.129	390.096	11487.231	8.611
9.614	98.600	2744.050	447.489	21138.351	8.876
10.496	99.000	2907.031	502.457	27942.315	9.123
11.360	99.900	2977.611	556.241	26695.863	8.926
12.226	101.200	2895.724	613.953	26829.774	9.488
13.095	103.200	2938.260	642.380	27191.502	9.660
13.962	105.500	2996.834	654.591	24659.801	9.525
14.835	108.700	2984.398	712.906	21954.758	9.170
15.701	112.200	2890.648	777.504	19475.850	9.073
16.587	116.000	2892.092	838.573	17495.918	9.113
17.452	119.800	2906.159	833.152	16075.053	9.059
18.340	123.500	2870.557	825.808	15264.607	9.636
19.207	127.100	2843.464	868.812	15020.258	9.068
20.071	130.600	2838.863	851.912	14576.240	9.152
20.946	134.000	2858.107	816.098	14069.826	8.776
21.811	137.400	2878.707	854.212	14173.845	9.226
22.679	140.700	2829.435	844.541	13686.472	9.832
23.546	143.900	2811.348	813.646	13170.544	9.774
24.412	146.800	2847.801	779.607	12766.161	9.863
25.295	150.000	2828.596	763.002	12298.734	9.561
26.174	153.100	2761.310	723.415	11860.192	9.927
27.045	156.200	2768.117	706.363	11625.727	10.119
27.910	159.200	2824.682	700.056	11245.276	10.156
28.805	162.100	2819.033	675.886	11025.484	9.463
29.670	165.000	2768.913	672.249	10808.327	9.862
30.580	168.300	2741.784	639.380	10571.123	9.550
31.458	171.100	2778.606	629.044	10323.489	9.899
32.322	173.600	2777.696	599.562	10206.161	9.942
33.186	176.400	2746.098	601.526	10059.984	9.702
34.053	179.200	2753.118	589.436	9899.798	10.454
34.921	181.900	2773.857	578.554	9749.673	9.746
35.798	184.600	2777.752	571.745	9664.798	10.270
36.689	187.300	2714.020	547.605	9549.558	10.990
37.554	190.000	2720.584	542.040	9459.741	10.245
38.432	192.800	2747.811	534.570	9449.488	10.770
39.297	195.400	2750.430	521.703	9368.790	10.329
40.185	198.100	2696.837	481.185	9130.007	11.447
41.051	200.800	2699.372	481.027	9113.870	10.534
41.919	203.500	2748.385	485.651	9057.155	10.981
42.788	206.200	2756.218	482.301	9052.034	10.740
43.653	208.500	2703.613	463.330	8895.911	10.932
44.518	211.200	2725.431	450.958	8829.363	10.763
45.398	213.800	2755.185	458.960	8831.312	10.669
46.266	216.500	2739.060	470.516	8854.620	10.732
47.131	219.100	2694.697	465.351	8824.409	10.702
48.000	221.800	2742.462	454.520	8731.878	10.762
48.866	224.400	2739.290	441.356	8686.358	10.546
49.734	227.100	2702.245	438.037	8658.784	10.667
50.614	229.700	2694.138	438.219	8649.779	11.671
51.487	232.400	2699.987	446.197	8648.123	11.522
52.351	234.700	2717.187	427.137	8612.474	11.459
53.219	237.300	2690.729	434.210	8642.290	11.101
54.086	239.900	2689.886	432.195	8611.888	11.069
54.968	242.600	2736.407	437.494	8596.070	11.263
55.833	245.200	2719.857	423.660	8578.328	11.641
56.708	247.900	2682.009	423.340	8559.669	10.715
57.575	250.500	2655.137	412.356	8474.360	11.595
58.442	253.200	2705.247	398.080	8440.175	11.110
59.329	255.800	2697.392	401.867	8490.090	11.003
60.196	258.400	2659.727	407.753	8503.641	10.749
61.062	261.100	2706.886	410.117	8492.026	12.018
61.928	263.700	2756.698	431.893	8549.645	11.260
62.820	266.400	2751.833	427.220	8573.615	11.980
63.691	269.000	2697.591	416.680	8551.900	11.116
64.556	271.300	2712.973	415.748	8521.116	10.972
65.420	273.900	2769.226	411.011	8532.069	11.517
66.296	276.600	2776.544	429.305	8607.138	12.333
67.167	279.200	2732.360	419.950	8577.398	12.037
68.035	281.900	2738.468	437.085	8633.464	12.712
68.898	284.500	2771.809	428.003	8616.079	11.702
69.766	287.200	2774.309	423.352	8604.794	12.366
70.632	289.800	2758.061	425.625	8666.973	12.554
71.500	292.400	2792.410	427.387	8644.965	12.656
72.413	295.100	2803.901	432.724	8663.789	12.408
73.288	297.700	2787.913	431.787	8731.369	12.632
74.153	300.300	2761.349	420.537	8662.426	12.029
75.020	303.000	2791.016	424.233	8694.395	12.853
75.883	305.300	2824.557	416.466	8637.374	12.331
76.748	307.900	2762.154	404.162	8663.904	12.884
77.614	310.600	2736.087	410.423	8639.348	12.971
78.481	313.200	2790.376	399.282	8610.283	12.508
79.356	315.800	2808.928	413.779	8679.162	13.341
80.247	318.500	2744.365	411.586	8679.863	12.163
81.126	321.100	2765.218	414.541	8642.341	12.084
82.000	323.800	2789.957	409.531	8682.843	13.967
82.887	326.400	2817.432	424.939	8724.695	13.811
83.762	329.000	2777.044	410.103	8643.691	13.325
84.632	331.700	2739.559	400.146	8656.937	13.807
85.500	334.300	2786.367	398.797	8644.863	13.655
86.391	336.900	2801.924	404.953	8632.929	13.316
87.280	339.600	2797.625	411.205	8696.000	13.551
88.166	342.200	2765.101	414.403	8680.398	13.238
89.035	344.900	2771.472	409.054	8650.098	12.916
89.916	347.500	2815.713	422.517	8761.452	14.042
90.781	350.100	2846.447	441.558	8785.677	13.227
91.647	352.800	2781.391	424.618	8728.745	13.625
92.513	355.400	2827.344	410.641	8719.741	13.977
93.386	358.100	2822.588	414.472	8667.190	13.323
94.253	360.400	2810.249	417.592	8758.243	14.125
95.144	363.300	2782.686	425.162	8743.227	14.393
96.008	365.600	2804.865	422.035	8715.767	14.893
96.875	368.300	2802.163	427.432	8750.958	15.070
97.738	370.900	2753.056	440.369	8826.638	13.798
98.604	373.600	2732.292	431.658	8776.239	14.997
99.503	376.200	2821.033	415.118	8745.837	14.570
100.381	378.800	2772.259	411.183	8736.565	15.313
101.251	381.500	2741.983	430.755	8837.731	14.257
102.118	384.100	2749.766	424.023	8849.703	14.183
102.984	386.800	2772.480	426.779	8774.036	15.137
103.851	389.400	2750.021	408.912	8834.381	14.653
104.716	392.000	2716.169	440.887	8982.353	13.940
105.589	394.700	2762.115	435.076	8904.979	14.470
106.445	397.000	2785.795	424.550	8962.064	15.258
107.308	399.600	2768.061	429.711	8979.882	15.143
108.174	402.300	2729.192	429.925	9020.665	15.300
109.054	404.900	2740.901	420.722	8960.383	14.731
109.916	407.500	2796.071	432.936	9009.635	14.705
110.777	410.200	2788.819	433.549	9072.438	15.953
111.641	412.800	2760.416	442.663	9097.797	15.075
112.507	415.100	2765.087	438.954	9037.375	15.727
113.375	417.700	2757.719	430.254	9064.618	16.584
114.237	420.400	2724.159	440.878	9081.901	16.315
115.102	423.000	2725.428	446.521	9106.674	16.218
115.960	425.700	2802.903	446.037	9106.661	16.318
116.827	428.300	2773.648	439.058	9162.523	15.754
117.700	430.900	2727.338	441.480	9210.654	15.165
118.566	433.600	2743.540	456.509	9162.638	15.890
119.433	435.900	2784.594	436.651	9118.773	16.288
120.319	438.500	2766.107	434.259	9105.273	16.899
121.185	441.100	2742.043	431.041	9107.247	16.713
122.044	443.800	2742.007	436.651	9136.362	16.113
122.907	446.400	2779.335	425.387	9084.742	17.193
123.774	449.000	2773.829	423.647	9118.570	17.351
124.673	451.700	2706.642	423.386	9144.909	16.580
125.540	454.400	2731.745	421.222	9115.526	18.359
126.404	457.000	2776.530	435.409	9200.401	16.192
127.279	459.600	2761.440	440.593	9279.304	17.647
128.161	462.200	2745.415	433.315	9272.413	17.809
129.027	464.900	2764.817	446.713	9280.858	18.134
129.895	467.200	2788.251	439.248	9287.200	17.453
130.762	469.800	2785.465	458.521	9336.707	17.394
131.630	472.500	2751.953	452.726	9296.880	17.930
132.498	475.100	2791.614	441.008	9202.503	17.096
133.363	477.800	2773.531	429.782	9177.832	17.742
134.227	480.400	2763.006	457.050	9225.607	17.926
135.119	483.000	2766.958	456.744	9223.951	18.826
135.984	485.700	2794.899	458.557	9146.450	17.442
136.851	488.300	2784.005	444.647	9143.240	18.195
137.720	491.000	2735.779	449.868	9144.985	17.733
138.584	493.600	2724.207	454.950	9060.020	18.437
139.452	495.900	2762.744	438.422	8958.867	18.223
140.320	498.500	2773.900	435.595	8999.751	18.780
141.188	501.200	2732.112	451.962	8997.446	19.457
142.052	503.800	2744.939	459.354	9022.855	19.745
142.919	506.500	2786.856	459.837	8981.640	18.179
143.810	509.100	2773.126	448.998	8950.691	18.971
144.675	511.700	2749.407	452.926	8909.017	19.433
145.549	514.400	2742.287	431.788	8805.890	18.912
146.438	517.000	2763.448	440.415	8839.489	19.397
147.325	519.700	2771.365	443.200	8908.839	21.094
148.190	522.300	2742.780	455.428	8895.160	19.506
149.057	524.900	2739.940	452.104	8856.122	19.273
149.924	527.600	2746.773	440.501	8746.003	19.475
150.790	529.900	2749.486	446.966	8843.870	19.931
151.658	532.500	2726.251	439.242	8793.166	20.079
152.525	535.200	2739.702	437.706	8760.446	19.963
153.393	537.800	2746.993	437.292	8790.402	20.018
154.260	540.500	2745.117	461.429	8858.504	20.796
155.127	543.100	2728.440	468.711	8896.459	21.159
155.990	545.700	2768.569	458.312	8816.741	20.550
156.857	548.300	2761.841	453.873	8775.195	21.383
157.727	551.000	2729.491	460.867	8793.383	19.960
158.592	553.300	2725.949	458.534	8837.413	20.749
159.460	555.900	2791.455	467.287	8868.044	20.179
160.328	558.600	2789.967	461.432	8851.359	21.662
161.193	561.200	2737.353	479.029	8957.454	22.127
162.060	563.800	2760.728	480.145	8935.712	22.450
162.930	566.500	2806.925	474.720	8949.901	21.459
163.797	569.100	2781.885	479.104	8961.173	22.961
164.674	571.800	2727.788	482.012	9006.616	21.552
165.542	574.400	2739.981	474.215	8900.331	21.887
166.426	577.000	2781.822	473.451	8914.099	22.098
167.302	579.600	2768.470	463.650	8908.546	21.829
168.170	581.900	2730.678	468.166	8893.466	22.296
169.039	584.600	2748.822	475.985	8877.864	22.145
169.906	587.200	2758.716	451.299	8835.464	23.031
170.771	589.900	2760.049	461.010	8880.895	23.435
171.636	592.500	2735.808	473.933	8923.689	23.250
172.502	595.200	2765.585	476.860	8898.038	24.588
173.368	597.800	2771.190	469.435	8890.091	24.419
174.233	600.400	2756.087	494.373	9030.064	23.859
175.102	603.100	2748.430	484.394	8948.716	23.651
175.968	605.400	2801.765	484.764	8942.132	23.766
176.836	608.000	2798.612	484.344	8951.646	23.984
177.726	610.700	2738.876	503.348	9084.258	23.325
178.596	613.300	2755.974	509.839	9107.935	24.422
179.464	615.900	2800.605	506.164	9086.729	26.196
180.326	618.600	2793.504	508.454	9094.370	25.091
181.194	621.200	2752.786	509.170	9074.196	23.700
182.059	623.900	2759.461	499.758	9081.417	24.773
182.949	626.500	2782.852	515.350	9099.248	25.193
183.815	629.100	2813.894	518.319	9161.199	24.012
184.704	631.800	2776.411	515.230	9147.494	25.110
185.566	634.400	2768.484	514.602	9072.642	26.349
186.431	637.000	2811.240	514.389	9082.831	25.805
187.297	639.300	2804.745	515.061	9099.911	24.804
188.166	642.000	2772.105	522.436	9169.885	25.268
189.035	644.600	2766.997	522.215	9123.855	26.029
189.901	647.200	2815.826	517.758	9103.744	27.145
190.771	649.900	2780.956	513.712	9119.716	26.085
191.637	652.500	2737.906	524.358	9175.451	26.530
192.504	655.100	2775.973	515.449	9039.183	25.204
193.370	657.800	2783.547	516.045	9106.113	26.745
194.240	660.400	2741.774	525.027	9146.717	27.349
195.105	662.700	2766.129	534.605	9226.244	28.710
195.972	665.400	2813.824	534.806	9179.463	27.415
196.839	668.000	2815.279	531.783	9193.664	26.466
197.706	670.700	2746.683	518.831	9157.276	27.784
198.573	673.300	2758.243	529.966	9136.044	28.910
199.439	675.900	2813.062	509.035	9121.155	27.197
200.325	678.600	2786.153	527.569	9242.292	27.575
201.188	681.200	2759.512	526.618	9173.693	27.113
202.051	683.900	2777.870	530.626	9168.942	28.500
202.926	686.200	2811.566	527.012	9170.674	29.788
203.793	688.800	2808.889	529.136	9258.492	28.812
204.657	691.500	2765.817	544.805	9303.426	29.902
205.523	694.100	2785.739	538.972	9215.685	28.852
206.388	696.700	2801.670	532.385	9215.137	29.164
207.256	699.400	2771.273	515.585	9175.005	28.412
208.120	702.000	2756.481	535.723	9306.114	29.401
209.013	704.600	2802.341	556.547	9331.230	30.473
209.880	707.300	2798.935	565.378	9404.707	31.231
210.747	709.900	2797.114	561.358	9354.754	31.195
211.615	712.200	2776.714	544.516	9312.406	29.497
212.483	714.800	2821.963	547.764	9290.346	30.465
213.360	717.500	2838.789	544.493	9334.720	31.081
