Mon, Oct 16, 2017	11:24 AM
 Notes: GUA_top chamber_3.7E-09_30 sec_0.0015 L_101617
 waiting time: 50.000
 time(s)	 temp (K)	 MS1=1.971	 MS2=14.708	 MS3=27.810	 MS4=125.586	 MS5=109.505	 MS6=125.586	 MS7=109.505	 MS8=125.586
0.000	98.500	3039.890	746.067	10334.990	67.413
0.943	98.500	3070.190	764.192	10443.734	68.317
1.827	98.500	3047.977	775.294	10513.784	70.348
2.699	98.500	3032.278	771.701	10539.741	69.391
3.596	98.500	3101.223	768.488	10472.441	68.489
4.469	98.600	3103.248	774.374	10560.565	69.135
5.366	98.600	3090.251	783.670	10602.175	70.062
6.233	98.600	3093.052	780.507	10565.940	71.788
7.109	98.600	3139.556	774.341	10587.044	70.066
8.006	98.600	3139.438	784.728	10698.042	70.432
8.875	98.600	3093.704	801.970	10745.778	68.769
9.764	98.600	3120.006	812.331	10770.347	72.297
10.660	98.600	3111.775	774.935	10617.166	72.787
11.528	98.600	3137.495	783.269	10681.357	71.526
12.423	98.700	3158.298	815.770	10794.852	74.572
13.289	98.700	3118.379	815.384	10808.391	73.887
14.189	98.700	3137.271	809.569	10975.073	73.799
15.075	98.700	3157.485	810.489	12133.516	74.249
15.941	98.800	3221.855	860.127	18558.049	81.063
16.825	99.100	3325.648	939.663	28238.234	81.200
17.702	99.800	3423.925	1011.726	30422.191	83.266
18.568	100.900	3527.168	1037.640	28271.655	82.337
19.435	102.400	3560.059	1043.910	29642.899	82.159
20.329	105.100	3546.328	1043.981	28885.742	78.451
21.207	108.200	3559.318	1043.981	26177.897	78.734
22.073	111.200	3591.857	1043.981	23795.047	79.530
22.936	114.900	3559.807	1043.981	22164.107	78.679
23.845	118.700	3508.709	1043.981	21291.151	77.929
24.729	122.900	3495.311	1043.981	20424.754	80.273
25.627	126.500	3530.872	1043.981	20200.962	80.396
26.507	129.900	3540.444	1043.981	19639.832	82.356
27.404	133.400	3518.175	1043.981	19408.703	81.761
28.287	136.700	3488.904	1043.981	19141.493	81.773
29.169	140.000	3493.933	1043.981	18480.548	80.843
30.035	143.300	3547.660	1043.981	17996.180	79.725
30.927	146.500	3515.341	1043.981	17453.710	81.602
31.800	149.700	3438.538	1043.981	17044.080	79.064
32.665	152.800	3459.511	1744.861	16521.465	79.980
33.530	155.900	3478.976	1705.775	16200.596	81.606
34.399	158.500	3444.309	1696.807	15956.540	81.341
35.269	161.400	3382.669	1626.689	15666.340	82.047
36.156	164.400	3415.910	1570.573	15434.664	80.551
37.045	167.600	3437.258	1548.102	15223.379	82.464
37.917	170.100	3415.652	1513.282	15038.560	80.844
38.783	172.900	3398.241	1537.850	14991.219	81.088
39.649	175.700	3413.147	1492.493	14756.435	83.370
40.519	178.500	3453.320	1427.058	14573.323	82.898
41.388	181.200	3380.358	1390.423	14473.380	81.420
42.255	184.000	3367.719	1349.051	14264.490	82.358
43.123	186.700	3374.383	1299.232	14079.009	83.416
43.990	189.400	3392.899	1267.833	14040.507	83.539
44.881	192.100	3352.220	1276.386	14075.506	84.991
45.748	194.800	3355.002	1283.331	13946.257	83.785
46.631	197.500	3405.608	1227.618	13784.313	84.586
47.525	200.200	3385.683	1198.458	13667.825	83.532
48.407	202.900	3389.538	1240.194	13654.261	88.055
49.276	205.500	3335.714	1213.353	13584.988	84.607
50.166	208.200	3354.933	1171.263	13468.857	85.463
51.033	210.900	3417.972	1176.368	13487.248	87.378
51.898	213.500	3366.161	1154.837	13405.455	85.928
52.762	215.900	3345.739	1161.859	13429.386	85.143
53.628	218.500	3390.348	1132.874	13252.910	85.338
54.496	221.200	3399.063	1124.584	13218.827	86.957
55.363	223.800	3353.835	1117.459	13222.750	85.649
56.246	226.500	3346.381	1118.660	13147.885	86.610
57.133	229.100	3394.432	1065.950	13057.367	86.470
58.000	231.700	3386.339	1074.847	13029.271	86.113
58.867	234.400	3335.480	1076.183	13095.653	88.568
59.734	237.000	3359.204	1064.256	12969.677	87.234
60.618	239.700	3387.207	1041.058	12948.777	90.125
61.484	242.300	3411.349	1042.623	12973.638	89.714
62.351	245.000	3362.686	1062.271	12993.825	88.195
63.229	247.600	3358.893	1073.261	13009.020	88.313
64.120	250.300	3404.040	1060.372	12968.569	89.810
65.013	252.900	3418.427	1046.235	12972.479	88.605
65.880	255.500	3363.059	1055.404	12950.572	89.631
66.746	258.200	3369.979	1085.273	13031.271	87.446
67.613	260.500	3422.592	1086.564	13026.240	89.978
68.482	263.100	3439.470	1067.173	12968.645	88.628
69.350	265.800	3389.326	1060.448	12971.957	90.626
70.216	268.400	3395.736	1092.019	13024.533	91.765
71.083	271.000	3449.203	1065.241	12938.485	89.624
71.951	273.700	3479.515	1069.988	13011.223	89.881
72.818	276.300	3440.073	1062.415	12977.688	91.083
73.686	278.900	3431.850	1047.063	12979.599	89.704
74.554	281.600	3500.373	1033.500	12947.172	91.693
75.419	283.900	3520.171	1043.058	12974.313	89.599
76.288	286.600	3498.314	1046.523	12995.379	91.151
77.179	289.200	3524.231	1031.270	12998.092	93.366
78.048	291.900	3581.584	1018.844	13008.026	92.957
78.915	294.500	3591.640	1026.119	12991.622	91.795
79.809	297.100	3552.637	1024.144	13001.633	91.584
80.698	299.800	3556.014	1023.356	13029.194	92.526
81.578	302.400	3618.383	1027.583	12988.196	91.566
82.445	305.000	3628.961	1014.287	13000.257	92.319
83.330	307.700	3576.256	1048.141	13065.468	92.809
84.214	310.300	3580.506	1075.198	13060.157	90.673
85.087	312.900	3633.951	1028.133	13026.634	93.245
85.955	315.600	3590.649	1047.028	12998.933	94.926
86.855	318.200	3552.784	1030.665	12949.579	92.319
87.721	320.800	3526.371	1041.756	12995.621	92.603
88.587	323.500	3595.070	1036.798	12957.425	92.149
89.453	326.100	3584.622	1047.796	12989.266	94.191
90.345	328.700	3534.519	1061.880	12981.789	95.155
91.213	331.400	3550.004	1078.561	13006.307	93.633
92.081	334.000	3569.392	1043.650	12949.159	95.206
92.948	336.700	3596.581	1044.712	12977.523	90.196
93.814	339.300	3538.118	1045.349	12993.290	96.313
94.703	341.900	3547.230	1058.408	12970.416	94.542
95.571	344.600	3575.346	1037.890	12904.186	97.690
96.439	347.200	3566.351	1034.831	12849.865	93.659
97.309	349.500	3538.576	1030.941	12881.923	94.503
98.174	352.200	3545.240	1015.104	12824.443	96.000
99.039	354.800	3582.186	1024.157	12821.883	96.304
99.907	357.500	3576.991	1034.133	12858.730	92.404
100.774	360.100	3508.121	1032.472	12825.679	95.470
101.664	362.700	3554.650	1035.817	12813.961	97.803
102.532	365.400	3588.879	1021.145	12824.354	96.280
103.397	368.000	3525.725	1022.902	12810.522	96.363
104.266	370.700	3505.749	1030.664	12856.679	95.721
105.134	373.300	3518.798	1027.882	12883.719	98.120
106.017	375.900	3555.220	1039.025	12937.441	98.107
106.880	378.200	3512.283	1050.766	13028.074	96.822
107.748	380.900	3516.179	1055.115	13123.775	95.094
108.616	383.500	3561.603	1045.195	13134.168	97.190
109.483	386.200	3545.239	1057.319	13215.834	99.123
110.350	388.800	3487.033	1061.322	13228.354	100.194
111.216	391.400	3475.014	1043.070	13313.905	96.545
112.101	394.100	3521.296	1054.156	13411.925	97.658
112.969	396.700	3559.977	1047.361	13461.584	96.764
113.835	399.300	3469.635	1057.538	13475.072	95.293
114.703	402.000	3478.575	1068.873	13586.529	98.330
115.569	404.300	3540.101	1078.875	13642.722	97.566
116.434	406.900	3534.889	1067.426	13652.962	98.451
117.300	409.500	3463.150	1074.003	13638.404	98.446
118.180	412.200	3494.681	1044.739	13672.933	100.148
119.047	414.800	3521.456	1054.997	13698.711	99.382
119.916	417.500	3519.660	1068.528	13763.667	96.818
120.783	420.100	3477.634	1060.942	13707.168	99.277
121.651	422.700	3497.798	1058.811	13799.457	98.039
122.519	425.300	3541.813	1067.403	13869.673	101.955
123.386	428.000	3487.924	1072.599	13886.803	96.639
124.253	430.300	3461.587	1055.351	13883.301	98.659
125.119	432.900	3544.894	1069.376	13944.576	99.326
126.017	435.600	3532.201	1070.040	13930.897	101.414
126.880	438.200	3504.338	1080.387	14059.713	99.487
127.770	440.800	3496.065	1083.583	14055.676	101.123
128.639	443.500	3520.393	1065.452	14044.481	102.890
129.506	446.100	3529.890	1059.559	14060.758	101.038
130.373	448.800	3490.931	1073.628	14079.455	101.546
131.240	451.400	3476.479	1063.645	14049.906	100.895
132.126	454.100	3528.512	1065.503	14031.438	101.050
132.993	456.700	3537.243	1061.350	14070.527	100.139
133.859	459.400	3490.242	1087.681	14145.990	98.435
134.735	462.000	3488.658	1083.916	14148.193	101.605
135.603	464.600	3541.433	1074.779	14147.862	100.434
136.461	466.900	3543.873	1073.397	14168.190	103.504
137.324	469.600	3508.695	1079.931	14114.378	103.764
138.191	472.200	3493.292	1089.399	14123.396	102.819
139.060	474.900	3558.911	1084.716	14088.765	103.394
139.926	477.500	3553.020	1091.673	14025.694	104.451
140.818	480.200	3503.982	1084.813	13948.728	100.287
141.692	482.800	3515.897	1086.428	13834.749	102.504
142.560	485.400	3541.725	1080.784	13678.766	104.664
143.426	488.100	3536.314	1076.818	13601.762	103.804
144.292	490.700	3491.803	1093.637	13502.978	99.237
145.157	493.000	3500.037	1066.052	13309.689	101.807
146.022	495.600	3511.012	1067.732	13202.754	103.723
146.904	498.300	3497.078	1079.725	13179.943	103.653
147.769	500.900	3454.716	1077.568	13172.416	99.865
148.635	503.500	3515.746	1069.637	13049.878	103.318
149.501	506.200	3528.473	1075.120	13042.058	102.203
150.368	508.800	3525.123	1092.499	13097.780	105.691
151.233	511.500	3473.739	1083.623	13013.885	104.400
152.101	514.100	3527.887	1072.132	12914.299	101.483
152.965	516.400	3528.433	1070.793	12886.241	104.246
153.831	519.100	3487.741	1097.470	12953.680	100.921
154.717	521.700	3453.296	1093.507	12817.502	103.765
155.583	524.300	3506.463	1073.889	12703.116	103.933
156.451	526.900	3524.368	1067.494	12718.209	100.036
157.317	529.600	3441.998	1094.001	12765.817	101.225
158.183	532.200	3465.056	1089.044	12747.171	103.999
159.050	534.900	3535.177	1082.132	12725.061	101.241
159.919	537.500	3530.936	1106.474	12763.181	102.490
160.784	540.100	3453.161	1096.455	12698.696	100.971
161.653	542.500	3477.354	1082.269	12649.916	103.582
162.520	545.100	3485.426	1076.422	12654.182	106.226
163.386	547.700	3462.773	1114.572	12757.526	103.840
164.255	550.400	3459.040	1118.876	12745.949	104.670
165.125	553.000	3490.313	1090.205	12660.576	102.864
166.011	555.700	3506.554	1096.371	12701.626	105.163
166.873	558.300	3453.820	1095.562	12716.464	102.480
167.739	560.900	3448.606	1105.853	12762.850	104.472
168.605	563.600	3497.788	1096.760	12708.070	103.708
169.474	566.200	3477.466	1097.530	12721.520	105.534
170.342	568.500	3428.908	1117.963	12720.234	103.980
171.209	571.200	3445.557	1109.454	12694.659	103.599
172.074	573.800	3481.432	1110.529	12757.055	105.014
172.939	576.400	3510.626	1125.612	12727.022	103.499
173.833	579.100	3418.403	1118.552	12763.881	104.944
174.702	581.700	3464.938	1128.175	12787.215	104.874
175.570	584.300	3513.075	1141.564	12833.104	105.990
176.436	587.000	3498.418	1128.205	12827.233	105.319
177.307	589.600	3451.691	1130.859	12820.470	104.402
178.202	592.200	3458.579	1154.879	12835.066	104.631
179.068	594.900	3518.910	1112.405	12804.969	107.182
179.934	597.500	3512.067	1138.361	12852.680	101.204
180.802	600.200	3448.495	1149.394	12888.660	104.318
181.690	602.800	3484.178	1141.247	12794.716	105.571
182.557	605.100	3520.270	1135.519	12816.891	103.905
183.452	608.100	3491.420	1110.446	12807.771	106.403
184.320	610.700	3442.386	1132.178	12818.037	106.619
185.189	613.000	3441.145	1130.944	12735.810	104.878
186.074	615.600	3491.681	1125.110	12753.476	106.447
186.940	618.300	3514.916	1136.469	12825.348	105.975
187.808	621.000	3435.345	1140.320	12801.021	106.396
188.675	623.600	3452.781	1132.890	12804.231	104.953
189.544	626.200	3497.515	1133.163	12814.993	105.958
190.411	628.800	3490.374	1141.030	12839.753	106.005
191.278	631.500	3425.003	1136.091	12805.364	108.453
192.144	634.100	3489.928	1141.246	12875.682	105.937
193.035	636.800	3531.346	1158.202	12887.145	108.211
193.900	639.400	3494.848	1167.846	12911.726	106.502
194.770	642.000	3471.236	1163.789	12909.765	109.788
195.637	644.300	3485.872	1149.063	12897.563	109.777
196.508	647.000	3507.548	1160.301	12959.246	109.456
197.376	649.600	3449.574	1155.030	12898.200	107.471
198.244	652.300	3467.488	1158.624	12908.020	107.791
199.132	654.900	3503.850	1135.517	12869.823	109.891
199.999	657.500	3520.019	1165.590	12884.687	108.763
200.900	660.100	3475.328	1150.178	12903.575	109.136
201.768	662.800	3435.252	1169.299	12925.864	107.625
202.667	665.400	3455.739	1169.035	12942.447	106.823
203.533	668.100	3502.826	1157.483	12941.453	108.126
204.403	670.700	3491.541	1161.586	12974.007	109.096
205.301	673.300	3467.466	1170.630	12981.280	108.514
206.171	676.000	3434.841	1151.347	12852.400	108.148
207.041	678.600	3513.352	1154.142	12903.817	106.899
207.908	681.200	3502.015	1180.483	12963.602	108.584
208.775	683.900	3477.511	1177.533	12953.909	109.556
209.643	686.500	3512.467	1154.973	12858.819	111.428
210.511	689.200	3504.192	1142.850	12862.347	108.428
211.380	691.800	3446.488	1145.771	12875.657	107.466
212.247	694.100	3459.222	1171.237	12959.399	108.376
213.138	697.100	3508.343	1173.606	12921.546	110.504
214.004	699.400	3485.644	1136.725	12846.274	111.333
214.873	702.000	3423.850	1165.868	12873.644	110.281
215.739	704.700	3450.099	1175.451	12998.844	110.888
216.622	707.300	3520.902	1156.625	12886.202	111.371
217.488	710.000	3533.068	1173.473	12919.801	108.207
218.355	712.600	3472.650	1174.921	12937.441	109.713
219.223	715.300	3452.939	1169.483	12904.479	110.076
220.090	717.900	3512.771	1158.631	12930.945	111.553
220.987	720.500	3529.992	1179.706	13006.702	111.404
221.861	723.100	3478.705	1212.780	13090.903	111.614
222.727	725.800	3476.805	1187.951	13039.091	113.959
223.593	728.400	3520.144	1180.465	12999.569	111.209
224.461	730.700	3511.184	1154.114	12953.820	109.523
225.327	733.400	3474.013	1171.835	12983.305	110.003
226.191	736.000	3477.626	1171.330	12938.868	113.604
227.063	738.600	3515.669	1180.814	12990.004	110.792
227.933	741.200	3530.648	1184.380	12942.383	108.778
228.799	743.900	3455.964	1189.969	12996.003	110.622
229.665	746.500	3458.114	1166.297	12920.845	110.217
230.533	749.100	3542.160	1194.556	13023.208	113.125
231.398	751.800	3518.348	1214.846	13044.071	113.476
232.265	754.100	3456.522	1201.381	13071.441	112.154
233.130	756.700	3514.881	1193.907	13001.913	109.186
233.997	759.300	3521.411	1187.753	12954.202	111.008
234.863	762.000	3479.870	1203.559	13033.092	113.869
235.729	764.600	3472.070	1200.467	13014.267	112.154
236.622	767.300	3545.077	1183.504	12973.600	112.968
237.491	769.900	3541.599	1191.923	13017.018	115.309
238.357	772.500	3486.934	1194.094	12995.430	112.854
239.225	775.200	3488.313	1201.041	12984.872	113.084
240.090	777.800	3535.744	1169.196	12959.055	113.769
