Tue, Oct 10, 2017	1:36 PM
 Notes: GUA_ 2.04e-09_30s_0.05L_101017
 waiting time: 50.000
 time(s)	 temp (K)	 MS1=1.994	 MS2=17.798	 MS3=27.907	 MS4=28.936	 MS5=30.937	 MS6=42.078	 MS7=44.109	 MS8=125.586
0.000	99.000	2351.312	1546.407	5194.062	1974.963	467.069	199.553	1071.401	433.279
1.122	99.000	1455.456	1298.492	5183.695	1985.496	468.763	198.827	1077.756	432.426
2.072	99.000	1469.415	1294.327	5153.535	1957.196	467.540	200.381	1089.958	438.132
3.030	99.000	1478.114	1312.629	5209.129	1946.255	463.872	197.910	1096.148	440.386
3.988	99.000	1482.241	1317.329	5166.908	1956.903	469.031	198.496	1107.101	444.908
4.961	99.000	1472.090	1333.937	5166.373	1954.368	467.426	198.190	1109.840	440.972
5.920	99.000	1484.342	1315.380	5171.977	1972.148	470.483	199.502	1102.618	441.431
6.879	99.000	1485.234	1332.817	5197.577	1949.987	462.255	197.069	1097.613	440.807
7.840	99.000	1472.854	1319.252	5179.262	1957.718	458.077	196.496	1085.475	437.661
8.801	99.000	1463.238	1325.862	5213.027	1964.201	467.375	198.445	1077.947	437.202
9.762	99.100	1461.353	1326.945	5222.821	1945.707	459.886	195.885	1103.662	447.723
10.723	99.200	1450.349	1328.359	5505.137	2063.010	484.480	200.406	1279.222	500.770
11.684	99.500	1474.522	1346.725	6727.238	2513.091	557.358	214.735	1913.751	718.831
12.645	100.200	1516.846	1365.829	7300.314	2653.497	588.919	220.084	2124.552	788.830
13.607	101.500	1517.877	1356.277	6865.861	2568.036	565.204	218.365	2176.390	792.918
14.567	103.700	1548.916	1361.206	7131.047	2637.768	581.570	221.752	834.847	400.025
15.528	106.300	1203.058	1120.793	5631.012	2115.369	490.148	201.833	1547.515	588.244
16.488	109.800	1432.276	1290.977	6255.378	2343.097	528.803	209.729	1641.917	626.249
17.447	113.900	1517.431	1346.954	6633.930	2461.304	546.264	213.053	1699.308	647.952
18.428	118.200	1523.710	1372.580	6696.696	2500.813	562.058	217.142	1744.204	653.251
19.382	121.900	1571.791	1389.252	6775.356	2483.236	559.345	216.403	1798.487	679.093
20.340	126.000	1556.507	1401.186	6826.544	2551.389	569.992	220.250	1858.348	699.165
21.322	130.000	1545.375	1422.940	6935.721	2580.072	575.036	223.408	1930.334	723.021
22.283	133.900	1554.660	1422.634	6988.577	2587.675	573.953	223.510	1998.194	744.329
23.237	137.300	1592.258	1451.482	6971.701	2599.240	573.202	221.523	2077.619	771.165
24.198	141.000	1587.788	1488.622	7015.005	2580.097	572.680	221.472	2143.211	791.785
25.159	144.700	1589.596	1527.328	6939.376	2553.885	564.350	219.957	2226.355	809.960
26.141	148.400	1567.371	1577.484	6944.076	2588.439	585.123	224.796	2248.605	819.729
27.101	151.900	1591.927	1623.934	6846.311	2526.502	573.979	223.179	2251.700	833.561
28.058	155.000	1602.766	1657.685	6797.785	2540.308	576.806	223.357	2264.590	825.002
29.015	158.400	1600.499	1683.222	6809.757	2492.050	575.036	223.930	2299.016	845.635
29.967	161.800	1613.693	1693.895	6698.530	2517.166	572.985	224.784	2320.630	841.215
30.917	164.700	1609.962	1720.412	6777.305	2519.714	576.552	223.981	2323.700	856.754
31.877	168.000	1616.139	1728.398	6731.122	2483.873	567.089	224.733	2355.439	863.058
32.837	171.200	1615.464	1736.154	6704.720	2507.219	574.679	226.223	2372.811	868.688
33.811	174.300	1593.570	1743.669	6723.073	2460.667	563.535	225.128	2371.933	890.149
34.772	177.100	1593.035	1751.515	6769.013	2517.052	575.698	228.566	2369.118	866.433
35.734	180.200	1619.909	1767.766	6724.996	2543.161	586.015	234.935	2401.838	930.650
36.694	183.300	1615.209	1780.133	6771.790	2568.316	603.133	242.398	2458.808	1002.573
37.650	186.100	1634.072	1811.350	6867.033	2605.876	628.389	257.351	2479.212	1124.767
38.610	189.100	1674.013	1835.562	6884.023	2727.012	686.595	283.932	2570.163	1364.072
39.569	192.200	1774.657	1895.003	7038.924	2940.411	793.925	333.196	2666.272	1745.656
40.525	195.200	1895.042	1980.236	7318.120	3235.273	940.827	397.184	2785.460	2295.705
41.481	197.900	2107.358	2111.549	7658.527	3583.118	1095.970	467.502	2826.484	2734.259
42.430	200.900	2281.096	2227.985	7872.002	3761.823	1156.366	485.308	2803.545	2549.122
43.386	203.900	2171.155	2165.436	7620.942	3454.951	983.239	389.746	2566.087	1529.951
44.344	206.600	1821.259	1894.558	6736.790	2739.634	700.872	278.697	2369.665	1137.554
45.309	209.600	1739.937	1885.884	6737.580	2701.666	686.556	275.054	2460.591	1152.723
46.270	212.600	1773.332	1875.045	6772.236	2707.589	687.422	277.283	2501.207	1185.762
47.229	215.600	1813.019	1890.635	6807.554	2723.025	688.276	275.195	2571.857	1221.653
48.190	218.200	1858.195	1899.589	6769.051	2771.335	708.578	281.410	2610.244	1258.079
49.148	221.200	1903.448	1906.275	6801.478	2768.176	711.036	288.148	2629.464	1250.921
50.099	224.200	1987.623	1933.990	6810.356	2756.369	705.597	285.014	2652.453	1266.931
51.056	226.900	2025.858	1932.589	6698.326	2751.237	696.351	278.455	2667.316	1231.256
52.016	229.800	2080.281	1925.813	6677.553	2676.805	679.717	269.947	2622.917	1164.530
52.990	232.800	2038.480	1898.761	6576.349	2608.971	652.690	261.044	2605.544	1119.073
53.945	235.800	2072.842	1905.855	6505.674	2545.276	631.153	252.129	2593.661	1069.045
54.896	238.400	2092.469	1896.239	6555.805	2549.453	624.581	245.137	2602.717	1053.366
55.853	241.400	2078.816	1886.024	6458.180	2534.169	611.450	240.946	2599.864	1032.389
56.811	244.400	2061.112	1880.930	6548.711	2503.615	601.299	238.182	2605.060	1025.639
57.772	247.000	2042.135	1865.761	6549.220	2544.333	604.062	237.966	2615.912	1006.420
58.730	250.000	2035.092	1860.055	6542.865	2506.837	592.791	233.330	2610.665	1009.591
59.689	252.900	2057.470	1866.372	6441.546	2481.007	589.326	234.616	2644.467	1000.714
60.650	255.900	2079.962	1857.138	6499.077	2494.190	591.950	233.559	2648.861	1007.528
61.611	258.600	2081.057	1868.652	6562.925	2481.975	586.575	232.184	2637.704	1010.381
62.572	261.600	2115.930	1877.325	6479.004	2500.545	587.709	230.630	2678.371	998.192
63.548	264.500	2118.299	1878.293	6440.999	2479.148	587.378	230.872	2650.046	999.211
64.510	267.500	2178.135	1883.846	6455.353	2461.368	586.728	231.394	2635.526	1000.090
65.471	270.100	2199.137	1912.784	6387.187	2447.421	579.328	230.197	2627.247	987.430
66.432	273.100	2259.202	1913.026	6419.219	2433.870	578.564	228.821	2607.977	997.377
67.387	276.000	2295.870	1932.640	6415.526	2482.345	586.448	230.248	2612.957	989.607
68.341	278.700	2366.290	1954.827	6388.448	2424.509	582.563	229.496	2598.132	987.302
69.303	281.700	2366.456	1944.790	6428.148	2467.023	583.748	230.337	2560.012	973.789
70.256	284.600	2437.067	1966.913	6372.871	2397.354	568.719	225.968	2544.715	963.867
71.217	287.600	2543.798	1996.526	6393.084	2437.016	577.239	228.172	2507.168	956.926
72.172	290.200	2609.722	2018.993	6416.086	2456.757	580.080	228.261	2492.305	938.203
73.130	293.200	2677.671	2033.105	6347.628	2426.597	581.251	229.050	2502.812	952.519
74.087	296.200	2774.595	2079.134	6381.978	2430.648	578.895	227.140	2491.018	929.695
75.047	298.800	2885.313	2113.357	6330.765	2391.598	570.247	226.147	2464.323	942.011
76.007	301.800	2957.567	2129.303	6377.240	2417.746	576.934	227.637	2477.110	925.620
76.967	304.700	3043.169	2152.725	6384.245	2457.598	591.122	228.592	2447.269	932.879
77.928	307.700	3075.316	2187.369	6330.828	2372.620	572.183	224.822	2418.561	928.180
78.887	310.400	3154.333	2198.717	6354.365	2409.874	579.825	228.057	2422.878	912.616
79.848	313.300	3250.340	2220.140	6355.881	2383.535	567.865	226.605	2371.703	903.152
80.808	316.300	3252.021	2226.610	6376.476	2380.759	572.387	226.261	2352.267	891.167
81.769	319.200	3349.366	2267.010	6403.057	2434.061	583.073	229.471	2335.328	888.162
82.729	321.900	3417.162	2283.210	6416.456	2385.255	579.341	227.904	2302.939	875.514
83.686	324.800	3530.593	2310.377	6459.785	2445.002	584.321	228.974	2302.391	880.749
84.644	327.800	3603.433	2346.995	6438.197	2422.152	575.800	227.216	2260.552	873.387
85.609	330.400	3626.829	2365.322	6403.617	2413.339	571.572	225.140	2273.989	846.310
86.569	333.400	3640.801	2354.917	6322.320	2396.106	577.189	226.274	2241.167	861.084
87.527	336.400	3606.387	2343.479	6301.560	2389.165	570.667	224.937	2212.689	846.552
88.484	339.400	3544.870	2337.264	6346.507	2376.556	568.400	224.847	2212.498	851.073
89.442	342.000	3417.098	2301.513	6272.827	2372.977	570.094	224.516	2233.016	847.965
90.394	345.000	3307.501	2274.664	6205.234	2385.930	575.087	224.809	2207.492	827.243
91.349	347.900	3202.336	2196.310	6301.293	2353.083	566.426	224.554	2142.116	821.142
92.308	350.600	3081.429	2168.710	6294.822	2360.546	561.561	223.090	2119.165	802.305
93.269	353.500	3024.013	2153.655	6275.705	2379.396	569.165	222.109	2099.691	794.765
94.232	356.500	3019.747	2152.866	6310.132	2362.546	564.923	223.064	2077.555	792.829
95.191	359.500	3003.928	2174.543	6191.887	2336.678	559.676	223.510	2067.812	781.175
96.150	362.100	3060.554	2172.085	6209.183	2328.310	562.210	222.720	2036.645	779.762
97.109	365.100	3144.245	2205.340	6225.562	2338.525	558.835	222.389	2049.458	769.662
98.068	368.100	3251.665	2230.214	6136.508	2345.084	556.734	220.199	2026.609	769.483
99.029	370.700	3318.314	2270.499	6201.604	2316.580	558.453	222.287	2009.198	762.173
99.988	373.700	3370.839	2285.439	6202.356	2332.335	560.822	222.364	1987.279	756.772
100.945	376.600	3400.897	2291.387	6188.333	2308.021	554.059	221.294	1947.108	769.267
101.899	379.600	3431.490	2290.063	6177.125	2301.984	547.271	218.326	1944.688	752.264
102.858	382.200	3495.440	2305.397	6219.703	2343.186	557.103	221.472	1942.192	735.910
103.818	385.200	3499.338	2307.957	6286.875	2341.938	558.275	221.536	1893.475	735.987
104.777	388.200	3478.934	2312.300	6335.006	2359.030	560.542	221.230	1883.286	729.351
105.738	390.800	3521.282	2314.848	6421.104	2385.802	566.363	221.549	1864.602	718.015
106.698	393.800	3585.754	2337.608	6541.145	2401.647	565.713	224.707	1847.012	712.348
107.658	396.700	3590.887	2344.613	6667.173	2473.786	573.953	222.962	1834.518	698.860
108.618	399.700	3606.922	2343.161	6790.576	2493.553	577.087	225.038	1824.163	704.222
109.578	402.300	3579.310	2339.684	7033.524	2589.458	593.720	225.573	1832.455	696.160
110.537	405.300	3610.934	2349.262	7178.465	2683.453	612.774	229.776	1813.108	704.833
111.495	408.300	3580.125	2336.270	7500.837	2760.152	618.404	230.158	1809.007	704.069
112.457	411.300	3430.242	2287.706	7819.286	2887.466	648.245	232.426	1797.697	692.313
113.415	413.900	3368.980	2254.592	8157.643	3004.552	670.063	238.705	1775.536	693.269
114.375	416.800	3197.649	2189.916	8464.528	3204.043	715.073	246.015	1749.502	679.029
115.328	419.800	3069.304	2165.806	8939.724	3237.578	694.135	241.532	1741.427	678.825
116.289	422.400	2974.851	2129.481	9319.131	3399.764	734.955	248.346	1725.023	660.994
117.242	425.400	2830.024	2071.913	9529.104	3509.348	744.533	248.728	1723.545	663.860
118.200	428.400	2778.365	2051.318	9898.766	3530.758	738.266	247.671	1710.643	668.305
119.158	431.000	2702.099	2036.365	10144.185	3702.471	783.621	255.631	1718.387	658.281
120.115	434.000	2647.689	2001.722	10368.066	3733.688	783.494	255.580	1706.020	664.866
121.101	436.900	2592.859	1996.691	10670.544	3876.591	798.994	259.898	1710.656	661.669
122.062	439.900	2593.152	1990.985	10813.906	3890.346	807.183	261.210	1703.931	661.631
123.022	442.900	2576.111	1994.399	10928.470	3970.790	828.339	262.802	1703.001	658.447
123.982	445.500	2542.716	1992.768	11048.651	4041.006	835.153	264.929	1699.868	657.314
124.944	448.500	2587.713	1996.819	11314.537	4070.389	845.533	264.623	1691.246	655.314
125.906	451.500	2569.640	1978.962	11372.781	4087.086	839.279	266.037	1689.590	650.805
126.864	454.500	2550.561	1973.473	11482.697	4116.075	840.476	266.623	1651.648	649.888
127.824	457.100	2522.796	1974.453	11506.743	4174.942	850.742	266.967	1642.032	635.738
128.784	460.100	2478.957	1956.062	11782.615	4277.369	879.679	272.558	1614.088	630.440
129.742	463.000	2468.564	1957.476	11842.578	4233.199	861.772	267.081	1630.467	637.241
130.702	465.700	2476.894	1963.526	11831.981	4284.399	867.516	268.126	1612.433	623.587
131.664	468.600	2468.424	1945.898	11841.164	4212.923	854.830	266.827	1601.721	627.192
132.623	471.600	2452.401	1954.661	11890.148	4272.071	847.189	264.101	1606.077	626.721
133.588	474.600	2461.049	1960.660	11829.141	4295.480	860.778	268.368	1599.836	624.543
134.542	477.200	2482.217	1965.640	11782.245	4254.482	859.505	267.527	1591.188	620.250
135.504	480.200	2481.237	1975.345	11788.384	4265.881	863.160	268.419	1594.270	623.002
136.464	483.100	2519.892	1975.370	11667.452	4193.461	847.507	268.444	1571.370	620.951
137.422	486.100	2537.455	2000.538	11591.453	4193.996	850.589	266.878	1589.125	626.899
138.373	488.800	2557.694	2000.448	11362.082	4165.658	850.857	265.744	1576.962	620.849
139.329	491.700	2595.279	2009.275	11211.321	3990.442	820.378	259.796	1558.430	617.474
140.291	494.700	2583.612	2017.974	10856.828	3933.599	801.770	259.236	1548.572	604.788
141.251	497.300	2616.141	2015.541	10449.630	3778.801	782.615	254.676	1532.804	600.445
142.209	500.300	2613.925	2028.698	10089.304	3659.320	765.102	251.581	1523.609	595.835
143.166	503.300	2628.330	2023.756	9689.239	3513.704	736.254	249.059	1507.421	595.504
144.121	505.900	2629.947	2044.899	9076.387	3325.128	704.859	243.799	1501.358	592.001
145.083	508.900	2651.154	2035.716	8697.592	3201.661	687.843	240.564	1514.910	594.918
146.040	511.800	2678.639	2048.974	8136.309	2995.853	650.474	235.839	1513.394	596.484
146.997	514.800	2663.597	2044.326	7768.442	2835.208	633.636	233.304	1486.520	585.162
147.953	517.500	2691.770	2047.013	7374.479	2720.504	614.761	230.910	1491.551	592.460
148.910	520.400	2626.661	2036.047	7073.516	2590.133	586.066	224.465	1502.237	589.377
149.869	523.400	2654.835	2036.123	6818.775	2528.782	578.258	223.077	1449.317	585.658
150.823	526.000	2585.688	2021.260	6604.598	2435.093	563.739	220.759	1448.858	583.213
151.777	529.000	2603.252	2041.052	6541.706	2443.282	558.733	219.995	1449.253	569.687
152.735	531.900	2584.517	2029.972	6450.131	2395.495	556.224	219.778	1444.069	574.450
153.694	534.600	2587.471	2034.722	6408.521	2336.512	545.029	217.549	1445.585	574.476
154.654	537.600	2543.913	2030.774	6310.985	2349.784	546.341	217.677	1463.620	577.354
155.615	540.500	2570.940	2033.678	6238.527	2334.869	545.831	216.913	1446.566	578.042
156.577	543.500	2515.842	2028.825	6212.813	2314.860	538.775	217.231	1457.443	569.190
157.536	546.100	2519.102	2022.559	6157.460	2279.988	537.349	215.639	1454.322	577.825
158.496	549.100	2508.938	2014.280	6140.240	2263.876	531.923	215.575	1437.930	574.183
159.461	552.100	2445.868	2009.389	6099.789	2240.021	528.090	216.288	1439.523	573.813
160.423	555.000	2415.988	2002.397	6052.601	2264.462	533.273	215.779	1381.635	557.039
161.400	558.000	2340.690	1982.490	6007.883	2259.482	532.738	214.798	1419.081	570.935
162.360	560.600	2338.308	1970.722	6033.343	2249.522	536.279	216.238	1418.686	567.216
163.321	563.600	2260.641	1943.211	6024.657	2230.915	530.599	215.180	1406.255	560.478
164.283	566.600	2210.332	1945.733	6032.910	2250.274	534.407	215.524	1391.481	563.675
165.244	569.200	2177.243	1928.386	6025.281	2233.220	529.007	215.053	1391.022	552.505
166.206	572.200	2129.864	1918.362	5970.272	2240.492	529.032	215.244	1417.590	562.771
167.164	575.100	2104.442	1919.585	6034.706	2256.082	540.164	219.001	1408.433	561.051
168.118	578.100	2142.625	1932.958	6018.365	2252.617	537.081	219.065	1400.524	556.912
169.080	580.800	2145.771	1924.781	6040.425	2228.074	531.083	216.429	1412.419	565.917
170.042	583.700	2121.075	1927.010	5931.503	2232.163	527.045	215.728	1424.927	563.319
171.004	586.700	2150.165	1932.245	5991.555	2246.415	530.726	215.091	1413.094	563.471
171.969	589.600	2147.542	1935.200	5964.936	2241.397	533.477	216.823	1413.069	567.407
172.927	592.300	2141.849	1938.104	5971.113	2233.105	533.515	216.683	1404.663	561.574
173.883	595.300	2156.941	1960.838	5935.043	2222.050	530.318	214.442	1377.483	556.848
174.843	598.200	2153.439	1948.356	5966.655	2217.032	529.618	216.900	1384.348	557.409
175.800	600.900	2151.133	1960.762	5992.243	2209.046	524.116	214.569	1378.273	556.110
176.763	603.800	2143.033	1955.119	5999.375	2230.660	525.619	214.977	1364.670	557.129
177.724	606.800	2142.383	1952.521	5924.587	2220.254	527.071	216.416	1374.185	547.933
178.686	609.800	2129.189	1956.877	5974.055	2205.161	524.320	213.869	1353.641	551.550
179.644	612.400	2170.964	1968.442	5943.831	2227.718	529.592	214.875	1368.606	549.538
180.605	615.400	2170.365	1965.105	5968.515	2247.930	541.896	219.689	1383.992	551.028
181.564	618.300	2200.564	1977.574	5982.155	2259.024	537.285	217.231	1382.476	556.861
182.522	621.300	2225.438	1994.017	6013.793	2270.334	540.622	217.893	1393.455	556.186
183.485	623.900	2199.086	1998.067	5993.733	2236.277	539.056	218.021	1395.302	561.408
184.442	626.900	2238.365	2010.115	6037.559	2234.774	538.992	217.715	1389.583	551.779
185.402	629.900	2250.045	2011.300	6071.158	2238.977	532.127	216.964	1374.643	556.492
186.362	632.500	2220.623	2010.154	6104.922	2241.065	534.891	217.600	1356.290	549.041
187.323	635.500	2222.814	2001.633	6075.947	2279.351	535.910	216.632	1365.269	553.053
188.286	638.400	2221.935	2019.706	6124.129	2290.929	547.716	219.549	1347.094	552.454
189.238	641.400	2208.384	2025.297	6144.176	2286.891	547.423	219.982	1361.486	552.314
190.186	644.000	2224.967	2024.686	6146.799	2271.315	538.954	218.390	1364.811	556.670
191.140	647.000	2240.340	2025.463	6204.585	2322.553	547.449	220.122	1357.029	552.582
192.094	650.000	2195.151	2026.087	6139.158	2302.888	544.965	217.881	1371.752	555.358
193.049	652.600	2277.390	2052.222	6201.655	2310.390	546.150	219.447	1360.900	554.046
194.010	655.600	2260.871	2040.912	6168.273	2308.454	541.552	219.409	1374.439	549.054
194.969	658.600	2309.626	2059.304	6245.481	2295.539	538.419	217.817	1372.363	558.173
195.930	661.200	2296.291	2057.011	6212.902	2297.539	545.054	218.326	1360.047	549.640
196.890	664.200	2297.513	2070.512	6212.609	2305.232	543.679	219.129	1369.370	549.843
197.850	667.100	2303.143	2059.214	6246.641	2317.637	550.658	219.957	1346.279	549.945
198.812	670.100	2258.705	2057.839	6288.352	2321.916	544.672	217.014	1360.493	546.863
199.772	672.700	2265.532	2062.246	6296.860	2363.221	552.977	220.377	1347.973	546.939
200.731	675.700	2262.768	2064.857	6380.488	2335.035	546.799	219.103	1352.902	541.476
201.690	678.700	2255.216	2071.098	6353.372	2386.044	558.173	221.077	1342.917	544.099
202.652	681.600	2254.197	2064.475	6386.487	2369.513	563.166	222.911	1343.439	548.290
203.610	684.300	2243.001	2067.824	6455.569	2400.080	559.905	221.510	1364.849	545.195
204.569	687.200	2269.035	2077.822	6419.487	2389.330	557.676	223.141	1378.439	557.281
205.530	690.200	2250.771	2073.632	6440.795	2387.178	557.498	222.135	1370.211	558.530
206.489	692.900	2224.635	2053.636	6435.739	2414.128	562.936	221.969	1347.400	550.735
207.441	695.800	2165.207	2047.777	6442.973	2431.501	566.350	221.459	1345.642	548.799
208.394	698.800	2136.410	2041.524	6446.157	2399.061	561.217	222.427	1349.667	554.428
209.344	701.400	2086.241	2015.350	6447.647	2393.495	557.472	220.441	1355.780	547.220
210.304	704.400	2035.283	2022.050	6484.596	2354.101	548.824	220.058	1321.736	548.264
211.255	707.400	1977.141	2003.301	6514.908	2396.310	556.339	220.874	1347.018	551.461
212.207	710.100	1944.510	1981.599	6529.364	2425.426	558.288	220.084	1343.401	550.811
213.169	713.000	1872.142	1964.315	6577.954	2421.783	563.420	222.007	1331.607	549.449
214.126	715.900	1830.048	1952.088	6559.308	2437.844	561.650	223.625	1354.290	547.895
215.086	718.900	1810.332	1959.832	6550.290	2414.103	556.517	221.447	1342.560	550.964
216.049	721.500	1774.568	1939.428	6561.804	2392.629	553.652	221.218	1361.614	550.760
217.007	724.500	1747.121	1943.822	6525.187	2419.452	552.722	222.020	1349.641	544.456
217.970	727.500	1710.720	1928.704	6657.060	2447.154	563.968	221.600	1349.590	552.314
218.929	730.100	1674.879	1919.483	6527.416	2459.203	571.546	222.911	1342.522	549.882
219.885	733.000	1664.856	1919.687	6641.534	2436.545	561.650	220.492	1340.127	552.951
220.846	736.000	1647.623	1919.967	6654.487	2490.165	580.220	225.828	1341.375	544.902
221.803	739.000	1641.943	1925.354	6708.808	2492.126	569.330	221.880	1331.275	541.667
222.765	741.600	1618.673	1912.580	6728.002	2471.366	569.228	223.064	1329.059	550.327
223.720	744.600	1618.049	1911.051	6791.697	2492.330	573.087	222.466	1336.357	548.519
224.679	747.500	1600.728	1913.242	6777.852	2509.856	576.806	223.790	1342.802	546.354
225.640	750.500	1601.046	1898.480	6805.847	2524.362	578.424	226.681	1327.595	550.442
226.599	753.100	1613.235	1918.693	6844.566	2520.185	578.424	223.816	1339.363	549.321
227.560	756.100	1614.241	1932.156	6869.669	2540.525	579.685	226.147	1344.330	545.386
228.521	759.100	1616.725	1932.754	6891.640	2527.037	588.460	226.834	1340.815	550.264
229.478	761.700	1605.224	1936.996	6899.218	2555.032	580.882	225.777	1367.969	553.066
230.434	764.700	1616.113	1932.691	7008.166	2547.364	570.782	223.816	1357.856	558.568
231.395	767.600	1610.599	1951.197	7032.951	2574.187	584.576	225.777	1364.951	552.836
232.358	770.600	1607.822	1949.719	7060.780	2592.324	590.473	227.229	1355.284	555.167
233.314	773.200	1587.023	1934.563	7170.937	2610.614	589.033	224.987	1353.259	546.379
234.273	776.200	1586.387	1937.836	7238.466	2635.195	598.216	227.815	1343.057	554.097
235.233	779.200	1606.141	1950.764	7222.431	2631.896	594.867	226.197	1341.248	552.263
236.210	782.100	1582.324	1934.474	7215.986	2661.139	601.082	228.070	1333.186	546.405
237.186	784.800	1566.187	1934.601	7181.687	2626.012	593.771	227.038	1327.263	550.939
238.149	787.700	1588.947	1948.000	7198.232	2615.224	589.556	227.089	1334.243	541.960
239.109	790.700	1584.947	1951.744	7168.390	2664.400	601.133	227.802	1336.230	550.557
240.065	793.700	1596.143	1956.189	7248.388	2671.494	601.299	228.694	1365.677	553.091
241.023	796.300	1610.548	1974.568	7276.204	2654.147	602.483	227.790	1352.940	549.079
