Tue, Oct 24, 2017	12:27 PM
 Notes: 400 L H2 then 0.005 L GUA_102417
 waiting time: 50.000
 time(s)	 temp (K)	 MS1=1.971	 MS2=17.737	 MS3=27.883	 MS4=30.937	 MS5=14.745	 MS6=78.871	 MS7=95.042	 MS8=125.586
0.000	101.500	11992.256	990.561	10516.892	26.575	766.984	2.397	0.598	6.706
1.790	101.500	12146.508	1020.672	10448.128	27.004	771.106	3.115	0.625	8.778
3.516	101.500	12366.288	1043.409	10699.685	27.723	804.422	2.541	0.750	9.262
5.272	101.500	12400.294	1046.938	10680.759	27.666	815.757	2.994	1.004	10.142
7.004	101.500	12421.449	1068.444	10696.030	28.996	805.131	3.252	0.603	10.278
8.753	101.600	12161.906	1050.772	10467.245	27.482	762.085	2.953	0.857	11.075
10.467	101.600	12047.278	1056.376	10496.755	28.696	742.825	2.794	1.176	11.176
12.185	101.600	11897.064	1061.091	13234.519	27.456	880.088	3.169	0.722	11.125
13.902	102.100	12441.993	1083.476	34920.005	31.260	1043.981	3.045	1.000	12.106
15.643	104.000	12555.093	1068.658	42913.489	31.525	1043.981	3.240	0.607	8.906
17.360	108.600	13384.376	1085.510	45502.427	33.087	1043.981	3.190	0.770	5.590
19.077	115.500	13765.489	1072.093	36070.284	31.205	1043.981	3.409	0.667	4.503
20.793	122.600	13674.639	1084.747	29826.367	31.405	1043.981	3.245	1.098	3.632
22.527	129.800	13678.435	1140.764	28812.699	32.449	1043.981	3.690	0.869	2.981
24.242	136.600	14018.243	1367.772	29398.117	30.679	1043.981	3.785	1.102	2.136
25.981	142.700	14363.962	2001.495	28582.844	33.176	1043.981	3.949	0.774	2.985
27.694	149.200	14488.626	2497.038	26475.420	35.298	6552.982	3.934	1.127	5.479
29.408	155.100	14814.845	2518.356	25294.828	37.253	6425.988	3.778	0.871	6.620
31.144	161.100	15041.541	2368.686	24004.613	35.550	6002.176	3.546	0.782	7.447
32.880	167.000	15730.952	2360.404	23108.782	38.737	5641.076	4.792	0.967	9.058
34.612	172.700	16408.773	2171.622	22015.715	39.668	5169.519	5.810	1.103	13.653
36.327	177.900	17131.617	1933.034	20943.127	39.033	4748.643	5.857	1.063	26.371
38.065	183.500	17216.073	1792.765	20128.389	41.716	4258.809	6.169	1.991	76.557
39.783	189.000	17641.585	1692.717	19423.503	53.936	3972.386	9.750	3.597	218.928
41.522	194.400	18041.739	1725.505	19363.718	85.745	3663.676	18.924	6.988	505.336
43.233	199.400	18132.027	1767.592	18903.627	114.707	3452.498	24.178	6.552	503.777
44.995	204.800	18577.421	1670.597	17959.283	84.602	2989.591	14.595	4.239	309.243
46.714	210.100	18149.514	1593.053	17423.002	86.562	2745.683	14.558	4.566	341.460
48.460	215.500	18748.484	1569.740	17376.246	94.442	2552.059	16.739	4.711	360.439
50.177	220.400	19335.584	1528.482	16721.950	82.973	2261.890	12.052	3.938	215.069
51.930	225.700	19541.799	1493.673	16313.352	66.093	2031.625	9.721	2.676	166.928
53.657	231.000	19480.129	1456.543	15922.050	62.454	1828.506	8.959	3.267	146.591
55.373	236.300	20061.243	1447.524	15665.041	57.906	1693.694	8.224	2.968	135.551
57.092	241.200	20980.292	1410.433	15528.137	55.503	1624.305	7.579	2.893	115.307
58.815	246.600	21944.097	1404.772	15106.637	53.114	1529.632	6.962	1.919	90.216
60.532	251.500	21779.402	1410.075	15053.946	51.066	1467.524	5.520	2.380	62.002
62.269	256.800	20522.328	1379.488	14749.659	45.660	1381.213	5.011	1.750	44.395
63.981	262.100	19284.892	1374.576	14759.976	45.001	1374.342	5.108	2.054	40.193
65.714	267.400	18361.589	1356.200	14592.390	43.888	1439.048	4.746	1.752	38.464
67.491	272.600	18213.260	1377.919	14673.050	43.390	1559.261	5.128	2.000	37.072
69.211	277.500	18003.134	1346.993	14357.237	43.662	1726.187	4.786	2.209	34.690
70.952	282.800	17991.595	1347.777	14217.187	42.612	1978.822	4.584	2.211	33.511
72.682	288.200	18006.293	1337.155	14010.844	43.084	2438.166	5.105	1.782	32.071
74.402	293.100	18165.410	1339.753	14004.093	44.324	3086.138	4.497	1.944	31.630
76.117	298.400	18571.256	1328.038	14037.335	44.755	4053.507	4.716	1.829	31.524
77.834	303.600	18481.223	1314.885	13893.974	46.525	4843.017	5.067	2.087	31.301
79.588	308.900	17824.315	1312.314	13924.389	47.692	5382.427	4.813	2.045	31.058
81.306	313.900	17282.442	1321.867	13736.921	45.547	5327.872	4.970	2.093	32.417
83.023	319.100	16349.740	1324.444	13699.692	46.001	4745.920	5.114	2.004	32.597
84.743	324.400	15785.540	1304.593	13558.521	46.793	3999.454	5.030	1.730	31.408
86.466	329.400	15413.954	1318.829	13621.694	47.685	3332.780	5.614	1.923	32.554
88.200	334.600	15205.038	1304.061	13509.868	46.430	2655.935	4.456	1.938	30.499
89.920	339.900	15087.863	1321.408	13503.169	44.929	2096.936	4.885	2.467	30.840
91.632	344.900	15066.708	1315.683	13529.979	45.058	1685.745	4.898	2.022	31.329
93.346	350.200	15449.527	1316.493	13690.496	44.847	1461.344	4.990	2.351	31.479
95.059	355.100	15345.674	1304.746	13746.588	46.467	1207.602	5.608	2.569	31.817
96.776	360.400	15507.415	1298.708	13712.072	45.665	1038.916	5.121	2.485	30.985
98.496	365.600	15899.786	1293.643	13991.217	45.693	970.562	5.651	2.666	31.344
100.214	370.600	15928.163	1288.134	14086.715	46.018	871.212	5.667	2.794	29.283
101.931	375.900	16229.890	1305.622	14188.619	47.463	815.446	5.441	2.719	30.952
103.672	381.200	16361.712	1301.139	14309.985	46.489	817.679	6.230	3.326	30.502
105.422	386.400	16809.665	1317.627	14648.265	46.982	791.811	6.217	2.686	29.984
107.167	391.400	16807.322	1308.740	14774.865	44.836	752.654	5.972	2.759	30.116
108.886	396.700	16690.007	1334.792	15125.283	43.940	732.437	6.619	3.362	30.956
110.602	401.900	16452.510	1316.751	15709.058	46.517	736.145	6.793	3.234	31.551
112.321	406.800	16648.791	1328.880	16743.309	44.626	726.810	6.471	2.842	29.769
114.075	412.100	16339.461	1332.989	18374.224	47.857	710.818	5.760	2.857	30.970
115.806	417.400	16039.505	1332.145	20388.085	44.425	671.574	6.113	2.885	30.194
117.532	422.700	15439.338	1326.626	22535.311	43.489	637.355	5.070	2.669	29.083
119.249	427.600	14515.602	1315.038	23524.551	43.957	638.167	5.556	3.203	29.499
120.969	432.900	14030.712	1321.774	24273.709	44.715	644.165	5.150	2.589	30.570
122.691	438.100	13407.403	1318.203	24295.055	46.163	657.464	5.154	2.762	30.101
124.408	443.100	13224.253	1345.999	24476.078	43.797	662.797	5.758	3.163	29.654
126.124	448.400	12982.974	1344.920	24371.092	45.023	662.659	4.907	2.436	30.048
127.843	453.300	12895.551	1358.061	24278.459	43.613	649.401	5.220	3.086	31.017
129.563	458.600	12605.224	1378.081	24410.880	43.548	664.828	5.504	2.892	31.440
131.283	463.900	12649.457	1369.118	24311.549	43.525	684.272	5.563	3.037	30.997
133.004	468.800	12839.511	1404.907	24318.223	41.935	671.876	5.321	2.998	31.632
134.727	474.100	12796.678	1407.483	24018.215	41.246	684.557	5.393	2.709	30.954
136.446	479.400	12957.030	1445.411	23568.491	43.275	678.279	5.403	2.591	31.109
138.182	484.400	12872.243	1446.640	22303.495	42.965	646.047	5.469	2.831	31.736
139.916	489.600	12958.775	1472.738	21266.429	43.100	674.548	5.380	2.179	32.121
141.636	494.900	13037.983	1485.294	19779.028	42.807	674.745	5.675	2.799	31.784
143.353	499.900	13129.201	1537.734	18175.637	44.818	681.196	5.549	2.930	31.655
145.072	505.100	12970.276	1543.223	16366.412	42.394	696.057	5.578	2.561	31.101
146.806	510.400	12914.324	1583.157	14569.553	42.833	707.078	5.793	2.697	31.147
148.538	515.400	12918.158	1630.231	13498.443	46.060	720.100	6.310	3.054	30.794
150.258	520.700	12809.784	1644.598	12613.298	42.383	698.094	5.467	2.562	30.738
151.967	525.900	12769.460	1692.880	12347.336	43.994	704.337	5.919	3.141	32.261
153.711	530.800	12727.939	1718.228	12125.645	45.515	715.528	5.772	2.910	32.043
155.456	536.100	12819.018	1785.398	11979.380	44.572	734.831	5.911	2.624	32.362
157.173	541.400	12802.537	1830.456	11974.107	46.457	754.032	6.099	3.117	32.589
158.890	546.700	12815.260	1880.790	11868.802	44.462	732.804	5.978	2.703	32.147
160.608	551.600	12499.817	1907.975	11732.598	46.014	750.512	6.172	3.099	31.973
162.329	556.900	12527.850	1970.931	11622.186	45.869	728.159	6.427	3.176	33.684
164.047	561.800	12204.102	2016.456	11690.606	45.679	725.934	5.928	2.901	33.143
165.766	567.100	12013.972	2047.123	11606.227	48.066	735.376	6.579	3.259	32.139
167.509	572.400	11803.490	2125.763	11673.221	46.111	739.735	5.696	2.657	33.000
169.246	577.700	11532.216	2169.207	11492.720	47.612	752.527	6.337	3.123	33.005
170.962	582.600	11687.779	2236.258	11719.480	47.049	768.318	6.090	2.909	33.807
172.680	587.900	11547.321	2260.914	11657.504	48.351	771.304	6.822	3.010	34.058
174.399	593.200	11530.216	2340.992	11577.698	49.017	762.900	6.761	2.972	34.528
176.120	598.200	11580.321	2376.504	11552.976	49.533	752.169	6.253	3.272	34.275
177.837	603.400	11707.100	2453.613	11615.436	49.934	752.425	6.267	3.639	34.561
179.550	608.300	11591.364	2501.435	11506.450	50.139	732.268	7.397	2.900	34.429
181.269	613.600	11705.139	2523.871	11492.733	49.426	734.476	7.390	3.060	35.026
183.024	618.900	11790.995	2607.055	11689.345	52.929	768.971	6.421	3.100	36.066
184.737	624.200	11822.174	2628.794	11587.823	51.224	759.121	6.338	3.469	34.525
186.452	629.100	11827.383	2716.199	11758.084	51.826	800.654	7.189	3.195	37.036
188.161	634.400	11835.738	2740.234	11768.261	53.858	773.588	7.318	3.780	36.418
189.877	639.300	11842.132	2819.721	11793.377	52.898	783.721	7.097	3.385	36.153
191.593	644.600	11863.606	2855.324	11861.568	54.228	797.898	8.055	3.823	37.696
193.312	649.900	11903.394	2884.385	11851.098	54.659	807.180	7.556	3.089	39.321
195.030	654.800	11958.046	2976.039	12023.779	55.354	809.045	7.608	3.862	38.358
196.748	660.100	11813.271	2992.197	11855.391	56.181	807.680	8.229	3.521	37.953
198.472	665.000	11970.910	3102.675	11951.678	54.559	801.547	8.090	3.656	38.660
200.189	670.300	11836.897	3108.268	11839.139	55.309	801.189	8.228	3.211	37.628
201.909	675.600	11777.813	3188.003	11839.648	57.032	769.528	8.089	3.360	38.590
203.631	680.500	11707.941	3197.358	11779.227	57.308	783.993	7.632	3.193	39.603
205.353	685.800	11743.883	3297.132	11819.779	57.116	794.782	8.691	3.795	39.149
207.073	691.100	11698.223	3318.875	11938.789	57.518	790.533	9.482	3.655	39.394
208.795	696.000	11597.044	3376.145	11917.060	61.698	814.216	8.687	3.934	41.117
210.514	701.300	11558.568	3456.498	12072.904	62.263	801.800	8.737	3.922	40.581
212.231	706.600	11218.454	3455.866	11919.124	61.304	791.301	9.700	3.543	40.680
213.942	711.500	11178.334	3559.104	12067.631	60.659	825.657	9.025	3.899	41.468
215.676	716.800	10928.674	3576.470	12067.618	64.187	791.165	8.993	4.135	41.643
217.382	721.800	10837.761	3672.318	12201.083	65.164	821.244	9.206	4.640	44.121
219.096	727.000	10634.156	3654.045	12132.357	62.923	809.495	9.059	4.023	44.035
220.816	732.300	10464.150	3705.793	12027.549	63.027	835.316	9.811	3.931	44.384
222.534	737.300	10563.609	3794.194	12279.578	66.736	839.133	10.161	4.283	44.419
224.252	742.500	10528.558	3766.845	12104.274	66.581	832.770	9.853	4.250	45.037
225.972	747.400	10461.781	3856.365	12205.337	65.707	825.304	9.471	4.352	44.062
227.691	752.700	10448.841	3858.489	12125.976	69.804	827.140	9.499	4.220	45.713
229.416	758.000	10391.183	3942.932	12209.910	68.545	823.260	9.041	4.330	46.591
231.128	762.900	10297.073	3918.387	12098.440	70.129	810.104	9.280	4.418	47.805
232.846	768.200	10378.281	3995.393	12191.544	69.929	835.487	9.958	4.184	47.334
234.567	773.400	10316.764	4042.437	12251.672	68.442	837.314	9.706	5.257	48.731
236.289	778.400	10352.197	4043.466	12274.318	69.346	826.372	8.868	4.613	49.280
238.005	783.700	10334.506	4122.637	12320.156	69.736	825.355	10.125	4.732	51.763
239.725	788.600	10251.655	4108.327	12251.698	69.634	831.408	9.655	4.710	48.606
241.443	793.900	10180.509	4183.509	12257.531	71.990	828.446	8.837	4.486	51.998
243.161	799.200	10123.081	4184.513	12320.080	75.167	820.784	9.241	4.362	52.055
