Wed, Oct 25, 2017	3:13 PM
 Notes: GUA top chamber_4E-09 above base_ 60 sec_102517
 waiting time: 50.000
 time(s)	 temp (K)	 MS1=1.971	 MS2=27.883	 MS3=125.586	 MS4=17.664	 MS5=32.000	 MS6=84.866	 MS7=56.522	 MS8=125.586
0.000	99.900	5854.651	8157.770	11.567	1079.590	277.882
1.101	99.900	5865.668	8227.681	12.299	1079.234	280.187
2.169	99.900	5861.949	8188.287	11.478	1076.597	281.703
3.286	100.000	5887.460	8210.372	11.748	1082.291	275.921
4.361	100.000	5849.582	8159.031	11.417	1079.590	276.022
5.439	100.000	5808.647	8129.266	11.782	1077.043	277.474
6.551	100.000	5810.952	8307.029	11.991	1092.289	276.838
7.666	100.100	5892.032	9056.721	11.410	1095.167	287.167
8.743	100.500	5926.090	11500.324	11.857	1103.064	305.202
9.822	101.400	6016.722	14396.057	11.767	1287.233	327.809
10.931	103.000	6129.975	17392.524	12.262	1381.139	350.569
12.010	105.800	6300.872	19224.420	15.875	1245.712	358.491
13.108	109.600	6308.705	18262.780	16.729	1179.139	359.752
14.188	114.200	6271.808	17333.477	13.037	1147.221	346.442
15.265	118.600	6251.417	16711.124	11.749	1159.333	349.346
16.364	123.500	6229.828	16061.170	12.177	1219.488	341.029
17.475	128.100	6227.256	15644.408	12.229	1389.876	343.169
18.553	132.500	6299.076	15610.350	13.195	1752.342	348.646
19.632	136.600	6233.331	15439.236	14.383	2377.422	345.398
20.706	140.700	6287.856	15686.858	20.676	3076.678	350.531
21.819	144.700	6324.893	15473.981	25.362	3488.754	351.422
22.895	148.700	6264.204	15168.841	31.526	3460.288	355.230
23.972	152.300	6239.406	14639.171	39.526	3274.896	346.111
25.074	156.100	6316.194	14699.363	55.796	3078.882	344.532
26.155	159.900	6261.988	14432.458	85.552	2983.919	335.234
27.275	163.600	6258.065	14365.630	119.158	2991.599	338.686
28.383	167.600	6215.602	14022.166	108.237	3069.724	331.757
29.482	171.100	6209.960	14012.830	113.049	3240.214	343.054
30.582	174.600	6162.835	13741.468	130.385	3479.125	343.156
31.689	178.100	6123.874	13594.018	179.519	3816.793	339.768
32.768	181.200	6141.272	13535.468	300.208	4201.765	339.501
33.848	184.600	6143.348	13634.609	567.108	4447.744	350.684
34.925	188.100	6185.111	14147.735	1180.986	4532.748	359.866
36.005	191.400	6223.830	15015.049	2455.833	4477.866	382.894
37.081	194.800	6343.909	16627.662	4671.562	4360.805	418.263
38.203	198.200	6425.626	18341.542	6755.438	3955.837	421.549
39.317	201.500	6326.511	15143.101	1490.061	3006.450	350.785
40.392	204.900	6039.418	12459.939	641.946	2633.233	338.138
41.467	208.200	6056.855	12234.351	550.000	2473.391	340.520
42.544	211.200	6163.306	12242.464	544.959	2361.068	335.744
43.621	214.500	6187.747	12227.117	542.723	2293.119	339.144
44.699	217.800	6314.755	12225.754	551.683	2250.834	337.654
45.775	221.100	6402.802	12146.902	539.439	2181.140	333.553
46.883	224.500	6574.337	12013.947	484.845	2118.324	329.605
47.961	227.800	6720.577	11818.328	400.657	2055.343	330.598
49.087	231.100	6854.513	11609.692	309.464	2000.117	333.235
50.168	234.400	6979.674	11484.543	254.803	1953.107	326.586
51.257	237.700	7130.346	11282.314	212.584	1919.865	323.109
52.360	241.000	7307.498	11319.466	184.366	1898.531	327.414
53.467	244.300	7364.990	11204.176	162.043	1864.258	321.848
54.573	247.600	7461.519	11121.020	144.516	1833.384	321.415
55.652	250.600	7515.662	11030.336	131.282	1805.785	323.924
56.731	253.900	7578.758	11109.812	124.681	1788.361	324.243
57.808	257.200	7624.482	11007.933	115.249	1769.155	317.454
58.890	260.500	7731.940	11037.214	111.753	1741.313	321.122
59.992	263.800	7792.030	11007.156	105.538	1733.098	320.154
61.070	267.100	7899.309	10991.974	101.151	1727.468	320.842
62.147	270.400	8043.435	11087.255	99.171	1724.017	317.811
63.225	273.300	8159.897	11031.724	98.110	1714.031	319.339
64.340	276.600	8233.985	10986.141	96.989	1690.902	311.837
65.417	279.900	8479.327	11001.323	96.635	1676.994	316.104
66.492	283.300	8608.080	10949.791	93.707	1673.517	317.212
67.570	286.600	8767.107	10935.641	89.484	1668.409	316.805
68.649	289.900	8960.701	10937.882	88.708	1655.507	325.083
69.727	292.900	9113.730	10839.022	85.728	1663.302	322.409
70.807	296.200	9271.636	10836.920	88.944	1655.698	321.453
71.886	299.400	9410.515	10786.051	84.864	1645.649	322.956
72.965	302.700	9669.727	10880.836	84.493	1651.508	327.796
74.042	306.000	9824.895	10897.253	86.632	1659.481	329.172
75.123	309.000	10086.998	10918.943	82.005	1655.329	330.114
76.199	312.300	10290.234	10926.585	84.034	1657.367	325.542
77.277	315.600	10710.014	11077.257	82.550	1664.232	319.097
78.357	318.900	10945.117	11020.682	81.429	1662.767	327.363
79.435	322.200	11067.399	10932.558	81.134	1671.058	324.688
80.504	325.100	11265.808	11033.941	78.172	1664.869	326.382
81.611	328.400	11326.904	11012.543	75.363	1668.167	329.758
82.709	331.700	11220.135	10998.813	71.897	1672.791	326.854
83.824	335.300	11028.935	11006.201	69.829	1672.829	324.383
84.934	338.600	10824.579	11042.983	67.406	1685.260	326.612
86.014	341.600	10444.230	11024.681	67.390	1682.177	326.561
87.093	344.900	10259.322	10945.078	64.915	1699.665	323.045
88.185	348.200	10205.766	10935.997	64.232	1710.210	326.472
89.264	351.500	10219.063	11108.971	64.153	1717.980	321.632
90.357	354.800	10329.793	11091.242	62.545	1707.676	323.835
91.446	358.100	10606.658	11204.023	61.242	1714.018	324.943
92.527	361.400	10794.737	11316.244	62.484	1727.583	323.440
93.636	364.700	11141.767	11485.588	61.257	1731.913	320.460
94.713	368.000	11276.888	11445.239	61.012	1718.464	324.103
95.792	371.000	11431.573	11508.679	59.931	1742.905	323.033
96.878	374.300	11505.278	11641.074	58.242	1713.547	324.421
97.971	377.600	11617.232	11702.910	59.176	1724.844	328.548
99.048	380.900	11696.605	12007.043	58.598	1730.640	324.306
100.166	384.200	11998.739	12354.188	58.721	1727.099	327.809
101.253	387.500	12133.109	12805.721	58.370	1723.240	324.039
102.359	390.800	12347.973	13427.043	58.171	1729.162	320.167
103.464	394.100	12555.208	14004.552	57.589	1735.594	328.802
104.544	397.400	12672.064	14890.537	57.449	1739.746	334.483
105.660	400.700	12536.217	15638.944	55.672	1747.477	340.660
106.739	404.000	12271.618	16482.810	55.463	1756.584	342.609
107.820	407.300	11971.050	17367.866	54.504	1739.631	345.589
108.928	410.600	11604.826	18168.122	55.877	1761.831	345.653
110.007	414.000	11105.316	18659.125	54.868	1728.003	347.818
111.087	417.000	10569.773	19010.180	54.730	1738.460	355.804
112.164	420.300	10210.223	19494.560	55.349	1752.100	357.281
113.275	423.400	9949.457	20053.384	55.575	1773.128	363.624
114.350	426.600	9978.114	20864.862	55.360	1788.489	364.108
115.431	429.800	9824.054	21350.439	55.229	1789.749	367.279
116.509	433.200	9674.630	22074.850	55.454	1788.399	370.107
117.615	436.600	9516.354	22240.156	53.745	1797.442	359.574
118.691	440.000	9439.273	22268.800	53.136	1796.551	369.623
119.770	442.900	9286.525	22435.814	55.861	1815.261	366.502
120.850	446.100	9327.740	22769.967	55.763	1816.763	371.826
121.931	449.300	9344.081	23183.723	55.467	1834.467	379.481
123.008	452.600	9292.626	23360.391	54.010	1842.504	376.080
124.089	456.000	9334.210	23701.256	53.264	1848.821	375.851
125.169	459.000	9212.870	23645.152	53.256	1848.808	375.367
126.246	462.300	9126.581	23502.733	52.606	1869.747	378.500
127.386	465.900	9141.699	23566.466	55.414	1871.989	380.703
128.490	469.200	9233.351	23677.031	55.822	1895.067	380.181
129.599	472.500	9295.071	23785.457	57.371	1917.178	376.004
130.722	475.800	9315.679	23343.133	57.627	1897.372	383.531
131.825	479.200	9371.363	22916.729	58.535	1912.427	375.316
132.905	482.600	9410.260	22215.982	58.478	1915.407	369.788
134.002	485.900	9395.091	21414.490	60.773	1910.402	367.648
135.083	489.200	9457.130	20676.006	60.828	1929.990	366.719
136.201	492.400	9381.781	19636.801	64.391	1942.345	359.421
137.280	495.600	9461.295	18794.208	64.796	1943.618	351.677
138.359	498.800	9399.396	17549.348	66.396	1932.130	350.836
139.439	502.200	9280.845	16403.360	67.959	1940.893	344.443
140.517	505.300	9287.493	15493.366	71.767	1951.757	342.507
141.591	508.400	9345.355	14840.840	77.416	1979.956	337.387
142.671	511.600	9455.169	14170.750	78.222	1991.813	338.533
143.749	514.700	9446.100	13430.431	81.749	1990.259	335.285
144.827	518.100	9434.956	12915.776	85.207	1987.203	330.598
145.906	521.500	9347.469	12533.670	88.153	2001.327	328.420
146.985	524.700	9310.763	12307.076	90.113	2009.517	326.866
148.062	528.000	9233.045	12097.612	94.676	2022.279	321.543
149.141	531.000	9292.843	11980.131	97.855	2039.167	324.918
150.218	534.300	9260.543	11847.519	99.213	2046.325	325.618
151.297	537.600	9145.061	11725.925	100.411	2044.899	325.988
152.379	540.800	9170.458	11654.919	105.377	2049.904	325.121
153.457	544.100	9132.401	11643.851	106.483	2068.550	323.326
154.535	547.000	9108.826	11669.184	109.349	2073.263	326.522
155.635	550.300	9072.808	11689.231	107.962	2085.592	321.211
156.713	553.600	8941.444	11669.413	107.884	2103.423	324.625
157.829	556.900	8888.804	11633.674	111.141	2117.102	324.077
158.907	560.200	8766.203	11589.148	111.036	2112.695	322.383
160.014	563.500	8584.416	11473.297	113.478	2122.757	320.549
161.129	566.800	8524.924	11488.568	110.691	2124.756	324.090
162.207	570.000	8556.701	11523.007	108.518	2137.595	324.166
163.286	573.300	8533.202	11512.857	105.976	2156.585	325.873
164.367	576.600	8546.423	11424.567	103.629	2162.354	324.077
165.462	579.900	8497.770	11381.811	104.155	2162.431	322.307
166.560	583.300	8555.033	11467.387	101.554	2167.232	320.142
167.678	586.600	8655.141	11508.475	100.563	2182.809	319.110
168.756	589.900	8649.142	11438.183	99.677	2188.260	326.128
169.833	592.800	8684.282	11419.447	101.032	2193.457	318.002
170.911	596.200	8841.768	11518.015	98.863	2201.366	320.804
171.991	599.700	8778.863	11502.171	99.685	2202.640	318.320
173.066	603.100	8777.067	11496.121	98.549	2200.156	319.454
174.144	606.300	8817.302	11548.570	97.756	2203.009	317.658
175.225	608.900	8861.994	11553.893	100.026	2237.296	319.275
176.303	611.800	9073.865	11550.697	102.406	2250.108	317.174
177.381	615.200	9312.788	11702.872	103.031	2273.212	318.218
178.460	619.000	9273.534	11679.602	101.616	2259.126	318.830
179.537	622.500	9144.960	11658.269	100.034	2256.782	321.517
180.616	625.700	9065.510	11634.630	97.001	2250.860	319.161
181.695	628.500	9127.855	11708.552	103.701	2271.162	317.709
182.774	631.700	9140.349	11741.208	103.076	2287.541	319.135
183.854	635.100	9288.971	11848.258	102.014	2289.337	315.977
184.934	638.500	9416.271	12004.445	102.570	2290.598	323.428
186.045	641.800	9373.643	11972.489	102.333	2303.601	319.275
187.124	644.900	9387.869	12054.729	105.180	2316.593	322.421
188.204	647.700	9485.749	12081.679	103.941	2325.152	322.982
189.323	651.400	9615.240	12073.260	104.122	2347.517	317.849
190.406	654.400	9739.675	12241.381	109.449	2381.408	329.057
191.484	657.400	9873.879	12247.839	109.108	2380.249	321.466
192.561	661.200	9759.455	12256.270	109.184	2383.268	325.287
193.641	664.800	9553.660	12183.532	106.815	2374.531	320.524
194.717	667.900	9475.063	12190.983	109.435	2354.878	325.784
195.799	671.000	9384.698	12107.814	110.297	2375.588	322.523
196.877	673.800	9485.711	12220.455	114.983	2389.012	317.492
197.956	677.200	9592.034	12384.730	115.549	2411.963	323.797
199.071	680.700	9410.082	12368.797	114.166	2388.897	324.039
200.147	684.000	9173.298	12207.171	110.362	2424.114	318.473
201.216	687.200	9087.493	12223.805	114.507	2436.825	320.129
202.289	690.400	8995.536	12275.273	113.833	2431.157	316.741
203.365	693.300	8971.247	12459.136	116.622	2445.931	322.651
204.445	696.600	8734.617	12364.912	118.391	2464.412	315.480
205.525	700.000	8613.811	12425.308	119.879	2468.717	318.116
206.619	703.500	8358.318	12333.249	118.639	2444.021	316.614
207.699	706.800	8083.797	12211.107	120.077	2466.386	318.460
208.780	710.000	7924.082	12219.882	117.240	2473.951	316.970
209.856	712.900	7859.839	12268.128	120.708	2470.882	312.054
210.928	716.300	7775.524	12345.782	121.039	2500.176	318.893
212.001	719.700	7663.048	12304.045	121.036	2495.158	312.729
213.294	723.600	7534.117	12276.801	122.745	2507.079	314.130
214.368	726.700	7523.750	12321.099	122.788	2491.107	316.461
215.465	729.800	7372.326	12231.409	123.606	2503.704	322.803
216.534	732.900	7284.445	12219.335	124.299	2509.422	319.288
217.606	736.000	7388.947	12394.321	125.425	2534.641	317.620
218.684	739.300	7423.692	12537.975	126.436	2547.950	320.944
219.764	742.500	7400.525	12544.916	128.491	2546.384	316.461
220.844	745.800	7447.675	12672.778	130.618	2555.516	318.511
221.938	749.000	7354.903	12710.541	131.222	2576.480	315.938
223.017	752.100	7451.929	12798.308	132.794	2590.439	322.944
224.096	755.500	7332.525	12810.051	137.296	2582.950	321.173
225.176	759.000	7350.865	12862.665	133.478	2606.844	325.720
226.256	762.000	7348.827	12901.830	131.999	2602.577	323.606
227.333	765.200	7320.782	12952.050	138.228	2622.802	323.593
228.410	768.400	7391.456	13088.712	134.259	2629.756	321.848
229.487	771.700	7312.274	13084.471	138.389	2634.443	325.504
230.562	775.000	7310.924	13227.208	139.572	2629.667	322.702
231.640	778.100	7329.977	13276.218	139.013	2638.061	322.421
232.715	781.400	7334.715	13420.878	141.685	2669.634	321.441
233.799	784.700	7309.421	13424.012	140.352	2670.577	327.503
234.872	787.900	7305.714	13437.792	141.334	2696.177	322.434
235.948	791.200	7321.278	13524.693	144.827	2692.305	326.764
237.027	794.300	7308.580	13640.569	143.624	2704.443	324.561
238.104	797.600	7283.731	13724.987	146.845	2697.693	330.458
239.184	800.900	7187.469	13612.333	143.180	2709.652	328.102
240.259	804.100	7213.554	13754.701	146.964	2719.790	323.695
