Thu, Oct 12, 2017	11:45 AM
 Notes: GUA_7.5E-10_2 sec_0.0015 L_101217
 waiting time: 50.000
 time(s)	 temp (K)	 MS1=1.933	 MS2=27.907	 MS3=78.871	 MS4=125.586	 MS5=17.701	 MS6=78.871	 MS7=109.505	 MS8=125.586
0.000	98.400	3762.440	9895.888	3.987	10.016
0.934	98.400	3705.690	9781.706	4.259	9.380
1.798	98.400	3716.836	9819.482	3.812	9.738
2.664	98.400	3719.722	9859.105	4.100	9.077
3.543	98.400	3730.620	9694.448	4.696	9.440
4.406	98.400	3674.575	9682.094	3.833	9.556
5.318	98.400	3679.215	9680.349	4.129	9.622
6.182	98.400	3713.960	9760.359	4.315	9.180
7.070	98.400	3706.042	9788.978	3.519	9.821
7.961	98.500	3688.112	9874.911	3.208	9.978
8.824	98.600	3684.832	10402.276	3.745	9.452
9.689	99.000	3747.490	12455.456	4.340	10.170
10.553	99.700	3774.621	14492.969	4.159	9.654
11.416	100.800	3773.766	13396.577	4.400	9.630
12.317	102.900	3795.657	13929.610	3.824	9.868
13.182	105.100	3859.970	14477.125	3.354	10.152
14.065	108.200	3865.273	14395.153	3.852	9.914
14.955	112.100	3834.073	13856.427	4.388	10.468
15.820	115.400	3849.814	13361.909	3.653	10.427
16.684	119.200	3888.035	13090.317	4.071	10.272
17.559	122.900	3882.519	12778.248	4.551	10.148
18.467	127.000	3830.143	12492.977	3.401	10.570
19.330	130.000	3810.922	12462.372	3.679	10.278
20.193	133.500	3846.644	12486.571	3.860	9.390
21.058	136.800	3811.093	12383.762	3.115	10.365
21.925	140.100	3813.713	12259.302	4.599	9.741
22.822	143.400	3795.273	12091.219	3.991	9.714
23.726	146.600	3805.638	11961.039	4.049	10.016
24.588	149.800	3784.645	11866.993	4.581	9.653
25.474	152.900	3740.084	11491.523	3.490	10.041
26.338	156.000	3733.399	11384.460	3.568	10.030
27.238	159.000	3764.610	11390.447	4.546	10.427
28.104	161.900	3759.842	11322.892	3.595	10.563
28.998	164.800	3691.074	11110.512	3.514	10.518
29.863	167.700	3685.800	10995.107	3.768	10.460
30.728	170.600	3719.653	11128.152	3.763	10.453
31.594	173.400	3709.791	11147.868	3.427	10.729
32.458	176.200	3705.276	11052.867	3.921	10.805
33.324	179.000	3709.152	11035.864	3.969	10.763
34.189	181.400	3735.291	11031.801	4.394	11.278
35.054	184.100	3726.405	10982.587	4.398	10.805
35.920	186.800	3695.286	10805.793	4.276	11.982
36.786	189.600	3716.130	10889.751	3.971	11.663
37.652	192.300	3766.935	10878.620	4.157	11.772
38.517	195.000	3774.081	10656.190	4.113	12.065
39.382	197.600	3784.027	10679.714	3.938	11.486
40.247	200.300	3829.933	10729.081	4.101	11.991
41.112	202.700	3849.870	10755.433	4.264	12.229
41.976	205.300	3872.260	10587.312	4.106	13.027
42.840	208.000	3896.844	10597.437	3.845	15.478
43.706	210.700	3958.689	10724.687	4.713	16.203
44.572	213.300	3989.712	10639.111	4.323	18.358
45.439	216.000	3989.694	10531.819	4.744	20.802
46.303	218.600	3982.242	10555.649	4.458	24.711
47.168	220.900	4043.098	10601.347	4.718	25.841
48.034	223.600	4073.721	10482.873	5.066	28.694
48.898	226.200	4022.178	10388.929	5.658	30.549
49.775	228.900	4065.941	10527.437	5.442	29.137
50.672	231.500	4097.508	10570.741	4.878	29.724
51.584	234.500	4137.903	10530.099	4.895	28.853
52.463	237.100	4113.580	10404.913	4.627	27.707
53.330	239.500	4099.240	10381.962	4.655	28.085
54.195	242.100	4159.333	10523.642	4.447	25.526
55.061	244.700	4140.276	10505.836	4.318	25.054
55.925	247.400	4124.459	10421.190	5.170	22.813
56.789	250.000	4137.538	10634.309	4.865	22.434
57.652	252.700	4134.919	10562.959	4.986	21.686
58.543	255.300	4088.425	10427.316	4.840	20.973
59.418	258.000	4042.090	10407.409	4.148	21.919
60.308	260.600	4042.905	10417.395	4.212	19.972
61.174	263.200	4079.081	10575.288	3.848	19.780
62.038	265.900	4110.403	10396.048	4.422	20.220
62.904	268.500	4043.667	10424.387	4.066	20.453
63.773	270.800	4111.869	10506.855	4.784	19.257
64.665	273.800	4164.187	10561.635	4.315	20.425
65.530	276.100	4186.934	10408.122	4.253	19.716
66.394	278.700	4138.971	10380.765	4.246	20.103
67.259	281.400	4233.859	10560.043	5.033	20.233
68.124	284.000	4290.064	10544.059	4.555	20.740
68.990	286.700	4281.276	10419.063	5.251	20.197
69.856	289.300	4356.118	10451.732	4.610	21.742
70.722	292.000	4496.027	10657.324	4.810	21.959
71.619	294.600	4602.037	10675.410	4.198	22.732
72.483	297.200	4634.231	10548.516	4.631	23.504
73.347	299.600	4772.165	10561.890	4.779	23.122
74.230	302.500	4974.321	10665.322	5.180	23.555
75.096	304.800	5124.727	10674.849	4.837	23.327
75.961	307.400	5222.558	10573.760	4.520	24.382
76.827	310.100	5430.552	10578.804	4.841	25.271
77.693	312.700	5696.952	10670.047	4.974	25.977
78.552	315.300	5798.340	10564.819	4.502	25.985
79.411	318.000	5889.747	10467.984	5.144	26.815
80.276	320.300	6012.680	10613.358	4.880	27.638
81.142	322.900	6179.882	10648.561	5.201	26.516
82.008	325.600	6147.554	10537.945	4.827	26.926
82.883	328.200	6156.500	10567.914	4.981	24.979
83.750	330.800	6131.031	10722.611	4.586	24.068
84.636	333.500	6071.722	10725.464	5.557	24.711
85.502	336.100	5914.748	10585.847	4.573	21.789
86.385	338.800	5753.767	10608.505	5.167	21.223
87.284	341.400	5599.773	10711.517	5.433	20.112
88.150	344.000	5489.065	10798.405	5.406	18.691
89.015	346.700	5288.163	10644.447	5.407	18.477
89.916	349.300	5114.015	10580.332	5.725	17.959
90.783	352.000	4982.560	10710.855	6.356	17.626
91.684	354.600	4986.457	10805.971	6.955	17.236
92.549	357.300	4930.999	10699.443	6.441	17.357
93.415	359.900	4866.650	10597.564	7.738	17.041
94.322	362.500	4850.640	10617.128	6.181	16.853
95.186	365.200	4978.088	10672.225	6.573	17.630
96.053	367.800	5167.903	10691.903	8.331	16.580
96.921	370.400	5323.069	10669.232	7.726	17.409
97.789	373.100	5525.144	10702.220	7.263	17.603
98.671	375.700	5806.762	10749.485	7.027	18.251
99.534	378.300	6028.839	10804.277	7.257	18.208
100.408	381.000	6180.892	10697.202	7.489	16.867
101.274	383.300	6378.424	10989.172	7.024	17.568
102.140	385.900	6619.644	11121.427	6.913	17.481
103.006	388.600	6699.903	11126.866	7.585	18.570
103.872	391.200	6745.056	11296.986	7.166	16.415
104.740	393.800	6894.749	11766.541	7.744	17.549
105.605	396.500	6947.309	12153.309	7.700	17.645
106.470	399.100	6804.806	12373.356	6.697	17.493
107.337	401.800	6583.100	12714.846	6.595	17.968
108.235	404.400	6515.237	13379.218	7.075	17.762
109.100	407.000	6258.334	13734.615	5.986	17.852
109.966	409.300	5917.110	13938.641	5.916	18.286
110.831	412.000	5640.986	14200.693	5.653	18.194
111.695	414.600	5436.711	14504.610	5.383	19.750
112.560	417.200	5165.684	14612.615	6.314	17.605
113.428	419.900	5003.204	14596.593	5.785	17.246
114.292	422.500	4829.221	14779.845	5.228	18.489
115.158	425.100	4778.652	14892.078	5.090	19.166
116.024	427.800	4693.771	14769.299	6.099	19.377
116.892	430.100	4570.579	14804.719	5.965	17.585
117.759	432.700	4555.733	14955.124	5.134	18.710
118.626	435.400	4495.020	15033.988	5.271	17.731
119.492	438.000	4406.933	14832.281	5.910	18.640
120.359	440.600	4405.674	14882.322	5.547	18.427
121.225	443.300	4404.084	15079.164	5.579	18.412
122.092	445.900	4395.411	15188.175	5.429	18.092
122.959	448.600	4324.643	15011.712	5.503	18.307
123.816	450.900	4320.350	15052.265	5.168	20.103
124.679	453.500	4360.583	15231.594	5.713	18.770
125.546	456.200	4354.934	15115.705	5.108	19.414
126.433	458.800	4271.125	15047.501	5.644	18.584
127.298	461.500	4291.846	15118.685	5.365	18.885
128.164	464.100	4340.420	15338.631	5.129	19.331
129.053	466.700	4363.310	15310.534	5.091	18.855
129.915	469.400	4311.166	15129.040	5.293	19.419
130.799	472.000	4339.639	15246.852	5.508	19.028
131.666	474.700	4409.081	15257.818	5.829	19.437
132.531	477.300	4392.168	15147.355	5.652	19.429
133.396	479.600	4355.495	14963.173	5.346	19.704
134.276	482.200	4404.975	15055.423	5.770	20.304
135.140	484.900	4449.839	14824.397	5.414	20.223
136.012	487.500	4484.446	14522.314	5.031	19.656
136.902	490.200	4440.481	14351.340	5.604	19.862
137.770	492.800	4510.108	14273.036	5.804	20.809
138.636	495.400	4558.144	13981.257	5.171	20.410
139.500	498.000	4563.273	13581.663	5.795	19.711
140.366	500.700	4567.042	13223.005	6.494	20.548
141.233	503.300	4629.418	13153.591	6.311	20.159
142.100	506.000	4658.718	12874.179	5.460	21.020
142.967	508.300	4620.410	12333.364	5.896	20.727
143.834	510.900	4655.493	12097.205	5.974	20.686
144.701	513.600	4687.413	11977.622	5.883	20.620
145.564	516.200	4651.804	11617.830	6.055	21.307
146.460	518.800	4625.213	11355.370	6.101	20.094
147.326	521.500	4611.150	11213.550	5.831	21.633
148.195	524.100	4664.779	11242.691	5.955	21.701
149.058	526.700	4619.830	11127.375	6.065	21.035
149.923	529.400	4600.038	10947.855	5.574	21.438
150.789	532.000	4590.431	11006.073	6.252	21.080
151.677	534.600	4607.493	10977.480	5.753	21.279
152.544	537.300	4586.689	10803.602	6.471	20.750
153.411	539.600	4554.722	10757.687	5.472	22.439
154.279	542.300	4522.382	10863.845	6.213	22.583
155.145	544.900	4545.203	10953.166	6.091	22.399
156.025	547.500	4515.545	10761.470	5.665	21.834
156.892	550.200	4405.380	10640.996	6.153	23.649
157.759	552.800	4370.921	10828.642	6.250	23.742
158.624	555.500	4345.530	10792.789	6.177	23.311
159.487	558.100	4288.765	10621.063	6.203	23.288
160.356	560.700	4219.091	10629.889	5.079	22.247
161.219	563.000	4228.226	10785.822	6.282	22.908
162.082	565.600	4232.332	10830.094	6.122	22.522
162.950	568.300	4167.246	10698.985	6.747	23.241
163.815	570.900	4120.221	10762.247	5.892	24.509
164.681	573.600	4184.188	10856.891	6.058	23.552
165.545	576.200	4188.905	10793.859	6.704	24.074
166.409	578.800	4114.526	10707.964	6.766	23.542
167.276	581.100	4118.250	10853.363	6.341	23.814
168.142	583.800	4150.936	10874.544	6.114	24.068
169.010	586.400	4136.578	10675.728	6.721	24.720
169.874	589.100	4110.453	10616.847	6.812	25.289
170.740	591.700	4161.311	10809.040	7.308	24.242
171.605	594.300	4193.429	10848.052	6.863	26.145
172.469	597.000	4098.690	10636.754	7.668	24.687
173.334	599.600	4156.229	10703.239	6.206	25.264
174.199	601.900	4200.492	10827.839	6.755	24.523
175.064	604.600	4200.048	10795.578	6.201	24.482
175.930	607.200	4137.875	10694.833	6.030	24.686
176.795	609.800	4152.072	10743.639	6.255	24.119
177.660	612.500	4224.597	10804.315	6.326	25.601
178.526	615.100	4233.367	10692.566	7.018	24.729
179.421	617.800	4167.909	10704.958	6.916	25.576
180.287	620.400	4145.305	10734.456	7.238	25.535
181.150	623.000	4218.873	10785.643	7.369	25.484
182.015	625.300	4225.732	10707.403	7.453	26.855
182.880	628.000	4180.295	10705.060	7.068	26.078
183.743	630.600	4221.115	10813.931	7.673	25.676
184.629	633.200	4242.497	10844.346	6.921	26.630
185.493	635.900	4214.673	10723.617	7.168	26.681
186.359	638.500	4195.580	10730.762	7.170	27.300
187.227	641.200	4289.656	10926.572	7.049	26.494
188.092	643.800	4296.531	10867.093	6.553	27.800
188.960	646.400	4227.315	10758.196	8.010	27.905
189.839	649.100	4229.128	10813.282	7.035	26.227
190.703	651.400	4270.520	10969.316	6.932	28.073
191.569	654.000	4303.869	10986.663	7.110	30.295
192.434	656.600	4252.243	10831.635	7.699	28.445
193.298	659.300	4266.061	10979.046	7.362	28.523
194.166	661.900	4301.520	10971.456	7.820	28.196
195.035	664.600	4311.926	10843.785	6.692	29.198
195.899	667.200	4260.662	10874.060	7.542	29.962
196.766	669.800	4286.737	11036.501	7.554	29.294
197.659	672.500	4313.478	11047.199	7.333	28.633
198.526	675.100	4331.594	10922.713	8.944	29.834
199.389	677.400	4262.198	10979.365	8.542	29.287
200.253	680.000	4273.369	11063.616	7.643	29.755
201.118	682.700	4260.692	11090.923	7.582	29.773
201.983	685.300	4189.701	10996.559	8.129	29.599
202.850	688.000	4174.467	10990.764	7.519	29.043
203.716	690.600	4238.912	11150.008	7.746	29.655
204.584	693.300	4167.221	11104.118	7.542	29.969
205.452	695.900	4086.909	10992.203	8.311	31.329
206.316	698.200	4030.044	10967.380	7.421	30.059
207.182	700.900	4053.298	11099.737	8.089	30.918
208.050	703.500	3985.530	11093.369	7.816	30.632
208.917	706.100	3892.968	10994.585	8.518	32.334
209.782	708.800	3832.256	11106.500	8.088	31.996
210.651	711.400	3866.774	11144.429	8.205	30.125
211.510	714.100	3809.020	11081.091	8.242	32.884
212.374	716.700	3749.474	11125.668	7.959	32.264
213.268	719.300	3704.689	11248.410	7.571	32.512
214.142	721.900	3719.226	11197.464	9.209	31.739
215.006	724.200	3682.762	11067.527	8.523	32.866
215.869	726.900	3648.604	11100.934	8.263	33.364
216.737	729.500	3664.114	11264.878	8.032	32.525
217.605	732.100	3687.092	11274.061	7.453	34.318
218.471	734.800	3638.919	11039.201	7.926	31.777
219.338	737.400	3583.583	11098.718	8.065	33.923
220.206	740.000	3647.375	11252.320	9.369	32.297
221.073	742.700	3644.421	11270.074	8.959	34.858
221.939	745.000	3577.323	11147.435	7.837	33.329
222.806	747.600	3557.993	11186.765	8.776	35.709
223.673	750.200	3605.419	11318.944	9.004	34.328
224.540	752.900	3614.863	11250.460	8.230	34.433
225.405	755.500	3556.723	11248.397	8.193	35.434
226.285	758.100	3573.824	11316.078	8.646	35.354
227.149	760.800	3621.561	11346.824	8.161	35.591
228.016	763.400	3612.160	11300.272	8.619	36.291
228.880	766.000	3609.814	11374.055	8.596	35.956
229.746	768.300	3625.557	11591.530	9.274	36.241
230.612	771.000	3630.763	11642.845	7.707	37.227
231.480	773.600	3615.541	11563.968	8.565	36.370
232.347	776.300	3592.078	11527.847	8.190	36.776
233.212	778.900	3624.028	11679.666	9.239	37.161
234.076	781.600	3615.316	11710.412	8.483	36.920
234.940	784.200	3577.177	11580.207	9.129	38.050
235.806	786.800	3564.918	11605.845	8.854	37.794
236.673	789.200	3624.387	11752.531	8.791	37.048
237.538	791.800	3628.106	11768.859	8.856	40.983
238.399	794.400	3628.317	11725.428	9.690	40.499
239.264	797.000	3611.745	11878.367	9.385	40.340
240.132	799.700	3655.382	11919.570	9.958	40.476
