Thu, Oct 12, 2017	1:05 PM
 Notes: GUA_1.14E-9_30sec_0.015 L_101217
 waiting time: 50.000
 time(s)	 temp (K)	 MS1=1.933	 MS2=27.907	 MS3=78.871	 MS4=125.586	 MS5=17.701	 MS6=78.871	 MS7=109.505	 MS8=125.586
0.000	98.300	3817.734	9102.165	4.444	-1.642
1.020	98.300	3878.024	9095.771	4.141	0.067
1.884	98.300	3848.745	9151.442	3.753	1.318
2.776	98.300	3880.173	9187.143	3.760	1.342
3.660	98.300	3935.140	9174.763	4.430	3.358
4.548	98.300	3942.248	9173.209	3.973	2.975
5.412	98.300	3904.228	9257.957	4.108	3.577
6.290	98.300	3895.873	9337.153	4.410	2.975
7.165	98.300	3936.826	9348.322	4.518	3.062
8.045	98.500	3975.104	9890.615	3.687	4.091
8.910	98.800	3985.588	11753.282	4.136	3.905
9.775	99.300	3989.543	13765.934	4.238	4.236
10.642	100.300	4082.209	12745.414	4.050	4.859
11.507	101.900	4124.220	13060.628	4.828	4.572
12.372	104.200	4056.907	13868.616	3.864	5.130
13.238	107.200	4110.024	13948.257	4.616	5.215
14.103	110.600	4180.012	13372.964	4.681	5.457
14.969	114.300	4207.583	13060.781	4.421	5.732
15.834	117.600	4160.321	12705.549	4.204	6.010
16.700	121.400	4116.237	12372.631	4.894	6.601
17.577	125.000	4148.420	12213.871	4.343	6.265
18.452	128.500	4150.277	12240.159	4.152	5.781
19.317	132.000	4062.052	12189.964	4.322	6.180
20.184	135.400	4130.105	12045.915	4.069	5.063
21.043	138.700	4123.900	11902.019	4.313	6.795
21.907	142.000	4067.876	11953.589	5.540	7.066
22.770	145.300	4053.794	11775.138	4.542	6.613
23.636	148.100	4137.971	11549.130	4.675	6.648
24.500	151.200	4104.272	11418.148	4.336	6.851
25.363	154.300	4057.413	11441.329	4.094	6.914
26.228	157.400	4047.843	11402.495	4.061	7.927
27.094	160.300	4097.458	11195.808	4.571	7.112
27.960	163.300	4091.077	11108.016	5.040	7.724
28.826	166.200	4033.859	11197.298	4.227	7.829
29.716	169.000	4012.160	11036.195	4.992	7.821
30.581	171.800	4041.480	10976.894	5.620	9.383
31.442	174.300	4038.179	10986.421	5.319	12.862
32.331	177.100	3995.537	10943.868	6.048	18.101
33.209	179.800	3997.463	10832.361	5.796	29.174
34.078	182.600	4062.996	10896.578	6.143	49.956
34.942	185.300	4072.974	10925.999	7.484	85.815
35.807	188.100	4067.604	10952.504	8.971	139.959
36.683	190.800	4114.649	10918.472	10.995	223.257
37.554	193.500	4184.209	10973.213	14.263	318.812
38.420	196.200	4176.140	11223.332	18.461	402.973
39.284	198.900	4236.960	11158.681	18.034	318.980
40.160	201.500	4322.290	10721.070	11.094	186.593
41.020	203.900	4419.275	10708.766	11.290	179.287
41.887	206.500	4449.827	10782.205	11.939	189.588
42.750	209.200	4516.775	10772.843	11.998	211.541
43.616	211.900	4655.965	10703.774	12.708	243.409
44.480	214.500	4703.998	10740.416	14.904	266.436
45.364	217.200	4702.875	10777.352	15.465	306.576
46.228	219.800	4779.374	10851.962	17.107	333.350
47.093	222.500	4915.076	10785.554	17.770	361.476
47.987	225.100	4959.181	10829.100	18.385	354.628
48.852	227.800	4914.638	10810.951	15.555	333.928
49.717	230.400	4873.360	10708.894	15.214	293.211
50.604	233.100	4929.674	10611.740	13.955	235.886
51.469	235.400	4853.270	10589.617	12.122	190.238
52.345	238.000	4702.897	10648.166	11.416	153.445
53.227	240.700	4663.449	10549.280	9.218	134.522
54.092	243.300	4722.707	10512.701	8.936	112.530
54.985	245.900	4653.363	10431.201	8.032	97.834
55.849	248.600	4555.674	10525.654	8.523	86.823
56.711	251.200	4587.923	10543.180	7.671	82.318
57.592	253.900	4633.856	10451.146	7.696	75.095
58.458	256.500	4614.303	10548.211	7.505	68.340
59.337	259.200	4532.882	10535.449	6.958	64.688
60.200	261.800	4579.680	10497.902	7.374	63.147
61.064	264.400	4591.592	10448.013	7.115	58.873
61.931	267.100	4608.051	10508.358	6.697	58.042
62.798	269.400	4641.199	10521.961	6.557	60.284
63.663	272.000	4721.359	10455.451	6.281	59.944
64.529	274.600	4725.612	10517.261	7.059	60.283
65.394	277.300	4704.207	10597.641	7.041	58.000
66.274	279.900	4745.504	10600.392	7.159	61.556
67.142	282.600	4884.502	10522.559	6.900	62.114
68.007	285.200	4923.474	10521.808	6.528	61.824
68.883	287.900	4942.272	10602.583	8.051	59.614
69.749	290.500	5031.818	10638.423	7.523	62.780
70.614	293.200	5172.459	10618.592	6.934	61.837
71.480	295.500	5217.215	10617.064	7.046	64.549
72.346	298.100	5212.280	10666.252	7.245	64.284
73.213	300.700	5286.615	10571.569	7.531	64.049
74.080	303.400	5463.414	10585.719	7.812	65.116
74.949	306.000	5583.418	10622.069	7.271	65.623
75.817	308.600	5688.088	10609.664	6.837	67.940
76.684	311.300	5882.543	10539.206	7.247	67.638
77.550	313.900	6217.565	10499.596	7.548	68.187
78.428	316.500	6555.835	10654.305	7.723	70.809
79.295	318.800	6892.857	10709.429	7.324	69.317
80.163	321.500	7375.260	10602.404	7.238	69.454
81.027	324.100	7843.645	10637.671	8.096	66.748
81.892	326.800	8162.200	10817.994	7.999	63.613
82.759	329.400	8375.282	10894.171	8.466	62.919
83.624	332.000	8581.606	10833.545	8.543	58.886
84.490	334.700	8563.405	10846.638	7.753	52.424
85.355	337.300	8271.972	10919.045	8.919	46.637
86.248	339.900	7947.463	10930.610	7.786	42.360
87.114	342.600	7665.704	10807.627	10.162	42.287
87.978	344.900	7303.333	10891.509	10.139	36.458
88.854	347.500	6815.270	11012.467	10.728	34.412
89.722	350.200	6516.109	10899.240	11.284	35.137
90.587	352.800	6432.591	10880.938	10.934	32.713
91.453	355.500	6314.533	10874.824	11.504	33.516
92.341	358.100	6277.664	10935.679	11.688	31.991
93.219	360.700	6292.316	10869.386	11.589	33.283
94.086	363.400	6547.045	10807.983	13.869	31.407
94.967	366.000	6802.731	10886.210	15.581	32.298
95.836	368.700	7075.399	10981.135	15.697	32.245
96.701	371.300	7393.370	10887.650	15.565	31.917
97.561	373.900	7883.229	10908.563	15.785	30.607
98.428	376.300	8069.888	10997.616	16.956	30.616
99.294	378.900	8157.078	10950.593	17.750	31.451
100.155	381.500	8413.988	11009.563	17.661	31.450
101.018	384.200	8385.210	11084.390	18.425	31.194
101.910	386.800	8280.234	11198.916	18.416	30.087
102.778	389.400	8338.877	11382.907	19.681	28.862
103.643	392.100	8543.782	11503.966	20.811	29.373
104.510	394.700	8593.311	11773.482	21.923	31.414
105.403	397.300	8434.732	12231.549	21.604	30.040
106.290	400.000	8409.696	12571.803	21.046	29.103
107.172	402.600	8243.981	12787.011	19.688	28.871
108.037	405.300	8170.071	13313.421	19.462	29.099
108.902	407.900	7804.868	13911.665	18.813	29.542
109.768	410.500	7533.953	14539.164	18.298	28.005
110.631	412.800	7362.559	14887.888	15.983	29.239
111.491	415.500	7068.963	15344.604	15.988	30.612
112.356	418.100	6682.039	15864.888	14.312	28.368
113.223	420.700	6411.577	16329.438	13.538	28.475
114.090	423.400	6251.453	16309.862	12.299	29.699
114.958	426.000	6050.102	16629.801	11.947	29.513
115.824	428.600	5800.082	16909.226	11.119	28.445
116.692	430.900	5695.228	16996.038	10.591	28.569
117.559	433.600	5689.214	17237.190	9.233	27.634
118.425	436.200	5600.819	17654.933	9.595	28.569
119.292	438.900	5546.683	17804.548	8.900	29.375
120.156	441.500	5546.993	17839.025	7.943	28.561
121.035	444.100	5535.649	18073.745	8.273	28.573
121.899	446.800	5416.444	18389.966	8.045	28.165
122.766	449.500	5436.190	18461.596	8.377	28.421
123.633	452.100	5438.620	18390.501	7.826	27.935
124.498	454.400	5433.928	18495.526	7.253	29.389
125.364	457.000	5365.062	18805.862	7.751	28.099
126.229	459.700	5365.426	18918.427	7.862	28.616
127.128	462.300	5418.727	18825.247	7.654	29.937
128.005	465.000	5433.629	18963.730	7.373	27.972
128.873	467.600	5345.528	19082.612	7.293	28.927
129.740	470.200	5369.143	19109.639	7.449	29.398
130.606	472.900	5447.318	18971.780	7.758	28.299
131.488	475.500	5497.479	18969.220	7.412	27.244
132.353	478.100	5420.533	18931.431	7.649	28.827
133.220	480.800	5479.125	18797.774	7.926	29.780
134.085	483.400	5581.409	18484.725	7.719	28.144
134.952	485.700	5720.530	18538.791	7.604	29.653
135.817	488.400	5660.573	18173.383	7.647	29.347
136.685	491.000	5717.461	17676.470	7.471	29.001
137.549	493.700	5795.065	17249.404	7.688	27.716
138.415	496.300	5734.732	16856.243	7.473	28.369
139.303	498.900	5799.721	16285.026	8.323	29.253
140.167	501.500	5896.852	15690.616	7.851	29.098
141.035	504.200	5910.819	15090.168	7.517	29.039
141.904	506.800	5822.341	14648.774	8.062	29.238
142.771	509.500	5825.626	14125.994	7.649	28.642
143.639	511.800	5951.830	13411.848	7.253	28.817
144.504	514.400	5891.285	12943.771	7.869	28.635
145.370	517.100	5803.638	12630.938	7.837	28.289
146.239	519.700	5823.582	12397.377	7.437	29.899
147.107	522.300	5902.249	11998.446	7.588	28.821
147.985	525.000	5881.056	11875.387	7.743	28.947
148.851	527.600	5832.303	11769.967	8.491	27.919
149.714	530.200	5746.009	11593.606	7.368	30.288
150.582	532.900	5850.097	11491.969	7.737	30.057
151.441	535.200	5863.674	11537.400	7.649	28.382
152.306	537.800	5725.192	11406.877	8.550	30.184
153.172	540.500	5735.503	11307.672	8.280	29.669
154.067	543.100	5702.390	11180.652	7.954	31.735
154.935	545.700	5633.503	11296.350	8.008	29.718
155.802	548.400	5539.530	11311.200	9.229	29.104
156.672	551.000	5486.071	11167.011	8.778	30.667
157.539	553.700	5429.925	11112.716	8.028	30.155
158.406	556.300	5316.428	11212.404	9.285	32.091
159.275	558.900	5247.954	11234.680	9.215	31.430
160.141	561.600	5295.991	11160.452	8.486	31.165
161.004	563.900	5170.314	11089.382	9.343	31.064
161.873	566.500	5067.837	11156.223	9.052	30.161
162.752	569.100	5000.056	11180.499	8.814	30.049
163.618	571.800	5059.106	11077.639	9.089	30.445
164.485	574.400	5028.108	11060.649	8.904	32.079
165.350	577.100	4948.989	11112.308	9.506	31.013
166.216	579.700	4902.524	11070.316	9.025	31.330
167.085	582.300	4992.233	11011.282	7.657	32.353
167.948	584.700	5006.358	11047.543	9.426	32.754
168.814	587.300	4913.489	11116.511	8.565	32.665
169.679	589.900	4972.935	11089.943	8.252	30.539
170.546	592.500	5052.563	11103.991	8.905	32.017
171.413	595.200	5041.402	11207.551	9.145	32.759
172.280	597.800	5007.756	11251.848	8.476	33.158
173.147	600.500	5107.667	11175.519	9.376	32.846
174.013	603.100	5112.025	11110.652	9.181	33.734
174.882	605.700	5042.008	11192.344	9.139	31.677
175.747	608.100	5034.684	11166.387	8.624	34.851
176.611	610.700	5090.874	11102.259	9.517	33.442
177.476	613.300	5139.530	11126.216	8.951	33.415
178.341	616.000	5123.662	11267.756	9.561	32.811
179.209	618.600	5098.715	11250.409	9.323	34.313
180.077	621.300	5187.221	11226.401	8.970	34.498
180.981	623.900	5213.008	11259.579	9.130	34.598
181.845	626.500	5088.184	11270.749	10.172	35.486
182.708	629.200	5069.584	11182.129	9.416	34.311
183.576	631.800	5159.864	11141.525	8.929	35.540
184.444	634.100	5177.324	11207.500	9.069	35.613
185.310	636.700	5113.943	11314.193	9.133	34.319
186.179	639.400	5177.439	11277.831	8.888	34.992
187.049	642.000	5190.969	11223.344	9.346	35.709
187.967	645.000	5210.105	11263.120	9.650	36.869
188.835	647.300	5183.184	11405.921	9.097	36.631
189.706	649.900	5170.932	11405.934	9.424	36.002
190.574	652.600	5306.575	11368.272	9.653	34.407
191.443	655.200	5285.141	11460.370	9.467	38.407
192.308	657.800	5217.726	11451.263	9.365	38.414
193.175	660.500	5228.594	11373.112	9.939	38.345
194.043	663.100	5285.138	11391.644	9.305	38.421
194.908	665.700	5224.366	11574.921	9.519	38.466
195.773	668.000	5232.426	11604.839	10.282	37.365
196.637	670.700	5330.456	11465.197	9.679	38.661
197.501	673.300	5293.644	11463.834	9.164	39.180
198.367	676.000	5234.778	11627.281	9.540	41.001
199.236	678.600	5191.624	11665.452	9.183	40.102
200.105	681.200	5266.825	11502.120	11.122	39.243
201.012	683.900	5222.954	11539.578	10.361	40.041
201.875	686.500	5104.395	11537.935	10.244	39.358
202.741	689.200	5092.296	11548.086	9.382	39.636
203.608	691.800	5101.583	11525.669	9.993	40.894
204.478	694.500	4997.605	11522.281	10.336	40.926
205.345	697.100	4874.421	11577.367	9.325	39.531
206.210	699.400	4821.188	11584.525	10.068	41.839
207.075	702.000	4760.711	11487.460	10.498	41.331
207.941	704.700	4683.145	11559.434	9.555	41.849
208.808	707.300	4554.075	11654.308	10.098	41.921
209.674	710.000	4463.483	11572.514	9.771	43.906
210.553	712.600	4463.876	11616.455	9.790	42.379
211.418	715.200	4344.771	11647.328	10.713	44.269
212.301	717.800	4240.907	11690.861	10.884	43.558
213.190	720.500	4149.419	11559.166	10.025	44.014
214.055	723.100	4146.617	11530.153	9.498	43.620
214.924	725.800	4084.980	11630.236	9.797	43.420
215.808	728.400	4030.243	11652.206	10.421	43.356
216.671	731.000	4015.611	11627.650	9.797	48.961
217.570	733.600	4050.419	11650.843	10.866	45.806
218.432	735.900	4001.427	11764.503	10.950	45.922
219.296	738.600	3984.893	11781.239	11.137	48.009
220.162	741.200	3994.289	11786.448	10.584	44.561
221.062	743.900	4002.577	11739.056	10.582	48.875
221.933	746.500	4006.377	11816.073	11.364	48.435
222.799	749.100	3913.918	11890.709	10.622	47.839
223.663	751.800	3985.404	11880.698	10.463	51.017
224.529	754.400	3992.047	11873.413	10.730	50.356
225.393	757.000	3943.922	11988.257	10.636	49.447
226.254	759.700	3924.138	12016.341	10.191	49.240
227.119	762.000	3971.846	11961.867	10.282	49.326
227.985	764.600	3996.997	11986.907	10.819	50.455
228.853	767.200	3919.461	12158.263	11.234	49.913
229.718	769.900	3960.511	12210.712	10.391	50.115
230.584	772.500	4012.354	12200.128	10.695	52.555
231.451	775.200	4018.891	12326.384	11.432	54.207
232.317	777.800	3940.265	12302.669	11.112	51.235
233.183	780.400	3946.223	12237.701	10.919	53.405
234.051	782.700	3973.292	12223.831	10.152	53.324
234.916	785.400	3948.853	12378.336	11.430	53.720
235.783	788.000	3944.013	12436.835	11.504	55.732
236.651	790.600	4006.003	12387.010	11.096	52.194
237.515	793.300	4001.058	12391.493	11.779	55.858
238.383	795.900	3939.526	12579.865	11.606	55.379
239.250	798.600	3928.905	12662.614	11.472	56.969
240.112	801.200	4009.636	12593.646	10.783	56.692
