Thu, Sep 28, 2017	10:49 AM
 Notes: furfural_0 L_92817
 waiting time: 25.000
 time(s)	 temp (K)	 MS1=1.879	 MS2=27.844	 MS3=97.084	 MS4=40.816	 MS5=77.304	 MS6=91.453	 MS7=78.423	 MS8=97.084
0.000	106.400	1722.539	4218.183	387.950
0.282	106.300	1721.533	4496.181	378.245
0.572	106.300	1703.536	4331.180	374.666
0.857	106.300	1698.378	4394.557	371.737
1.141	106.300	1757.564	4425.099	365.827
1.449	106.300	1715.407	4402.505	393.796
1.738	106.200	1713.942	4391.933	368.769
2.035	106.200	1736.970	4281.215	371.024
2.338	106.200	1747.681	4368.231	377.048
2.637	106.200	1713.496	4385.081	372.272
2.937	106.100	1733.480	4450.330	386.549
3.220	106.100	1753.794	4434.970	370.794
3.510	106.100	1801.887	4447.795	377.417
3.836	106.100	1733.964	4417.050	371.202
4.129	106.100	1754.189	4366.766	368.196
4.417	106.000	1718.489	4483.789	369.470
4.705	106.000	1725.481	4355.558	374.552
4.990	106.000	1751.489	4364.321	386.613
5.297	106.000	1758.087	4430.015	373.813
5.616	106.000	1779.739	4337.103	369.062
5.919	105.900	1723.813	4425.290	378.933
6.207	105.900	1701.155	4426.385	368.005
6.498	105.900	1798.550	4397.104	375.227
6.802	105.900	1703.702	4468.594	388.001
7.091	105.900	1769.690	4377.643	365.203
7.382	105.900	1734.117	4426.284	369.546
7.673	105.800	1752.967	4443.911	380.652
7.955	105.800	1706.950	4438.039	372.679
8.239	105.800	1694.099	4457.462	372.081
8.530	105.800	1793.481	4361.850	389.224
8.816	105.800	1728.003	4433.976	380.156
9.101	105.800	1738.498	4380.534	385.378
9.391	105.800	1730.576	4402.938	360.669
9.701	105.800	1746.203	4402.135	387.696
9.989	105.800	1740.791	4404.695	371.915
10.272	105.800	1672.689	4567.722	380.283
10.574	105.900	1769.868	4470.339	387.110
10.860	106.000	1738.167	4559.456	384.741
11.150	106.000	1778.427	4643.720	390.714
11.439	106.200	1753.272	4720.024	384.435
11.747	106.400	1731.709	4887.025	402.903
12.031	106.500	1790.603	5076.823	409.793
12.317	106.800	1763.512	5338.392	423.332
12.639	107.200	1795.990	5397.285	440.412
12.932	107.700	1762.162	5121.490	411.245
13.222	108.000	1761.105	5317.415	433.509
13.513	108.600	1774.491	5195.578	414.162
13.804	109.000	1743.835	5300.730	433.865
14.137	109.800	1767.792	5361.445	457.886
14.425	110.600	1748.483	5339.589	436.540
14.715	111.500	1822.355	5385.058	443.239
15.005	112.200	1756.596	5496.362	439.227
15.292	113.300	1745.987	5719.886	463.057
15.582	114.400	1802.511	5658.688	458.434
15.866	115.200	1783.063	5690.516	455.454
16.154	116.500	1785.661	5842.997	484.238
16.437	117.400	1760.468	5660.433	457.491
16.727	118.800	1804.384	5719.568	459.669
17.015	120.200	1790.233	5591.656	435.241
17.303	121.200	1768.620	5657.223	447.544
17.593	122.700	1820.712	5580.511	446.360
17.883	124.100	1744.841	5701.291	443.978
18.172	125.100	1785.432	5637.660	471.285
18.462	126.600	1819.413	5427.598	437.686
18.771	128.000	1773.956	5329.858	439.991
19.061	129.000	1778.312	5375.990	440.947
19.351	130.500	1773.243	5329.871	427.714
19.641	131.900	1788.514	5430.947	450.142
19.946	132.800	1749.095	5286.784	438.145
20.231	134.200	1742.816	5377.238	447.047
20.534	135.600	1825.679	5303.863	421.498
20.838	136.500	1798.818	5252.051	446.513
21.126	137.900	1776.516	5238.156	430.796
21.414	139.200	1716.553	5296.642	423.460
21.705	140.100	1832.467	5417.625	445.277
21.990	141.400	1792.386	5112.740	432.643
22.276	142.300	1729.111	5392.420	450.754
22.561	143.600	1814.293	5258.343	433.470
22.851	144.900	1832.990	5419.548	438.094
23.142	145.700	1794.602	5199.679	434.579
23.432	147.000	1735.709	5145.893	430.363
23.721	148.300	1824.151	5338.761	418.047
24.007	149.100	1788.896	5181.555	424.287
24.292	150.400	1760.838	5338.035	459.249
24.576	151.200	1764.073	5191.438	427.535
24.888	152.400	1834.671	5048.357	418.645
25.173	153.700	1766.989	5186.981	422.644
25.462	154.500	1784.795	5177.594	426.542
25.764	155.700	1804.664	5321.159	427.981
26.052	156.900	1769.269	4931.653	441.367
26.350	157.700	1779.369	5205.792	449.429
26.639	158.900	1837.053	5138.952	423.192
26.932	160.100	1807.682	4970.181	422.008
27.228	160.900	1805.695	5196.966	422.976
27.520	162.100	1742.739	5062.546	398.598
27.824	163.300	1841.268	5128.202	428.834
28.113	164.400	1768.441	5020.082	410.672
28.404	165.200	1843.293	4982.319	417.945
28.697	166.300	1812.267	5148.771	419.588
28.990	167.100	1832.034	4993.501	420.403
29.277	168.200	1755.667	5036.410	417.741
29.563	169.400	1763.105	5005.894	418.582
29.852	170.100	1809.045	4972.410	416.773
30.138	171.200	1776.032	5085.662	405.718
30.427	172.300	1811.605	4978.230	432.553
30.715	173.000	1821.629	5047.911	418.645
31.007	174.100	1840.975	4973.543	405.845
31.299	174.800	1745.821	5028.870	404.966
31.589	175.900	1767.180	4846.497	397.987
31.894	177.000	1796.449	4961.444	411.194
32.182	177.700	1762.060	4845.911	407.081
32.483	178.800	1794.627	4949.408	428.019
32.776	179.900	1766.773	4985.579	407.972
33.080	180.900	1825.564	5527.783	415.487
33.388	181.700	1756.100	4928.087	405.947
33.685	182.700	1744.255	5011.867	406.253
33.976	183.700	1830.251	4906.779	405.030
34.262	184.400	1757.029	4726.558	397.745
34.562	185.500	1827.526	4798.379	387.173
34.852	186.500	1801.671	4965.201	403.069
35.145	187.200	1743.911	4853.146	394.115
35.433	188.300	1806.078	4865.233	400.623
35.725	189.300	1771.931	4984.981	399.388
36.016	190.000	1799.085	4871.104	412.557
36.302	191.000	1758.036	4985.146	406.100
36.591	192.000	1845.127	4758.450	398.101
36.882	192.700	1794.118	4900.729	402.381
37.174	193.700	1773.969	4906.027	401.005
37.476	194.700	1843.306	4764.869	393.376
37.764	195.400	1760.443	4947.510	393.987
38.073	196.400	1753.833	4856.635	410.252
38.362	197.500	1797.646	4757.049	398.980
38.653	198.100	1806.243	4814.490	412.595
38.937	199.200	1717.929	4809.421	409.819
39.221	199.800	1729.710	4879.472	405.030
39.509	200.800	1802.919	4898.882	398.611
39.796	201.900	1716.617	4832.130	401.668
41.657	207.600	1737.186	4919.222	388.727
42.030	208.600	1781.776	4817.968	398.038
42.318	209.600	1779.204	4739.333	374.042
42.611	210.200	1803.785	4691.163	414.442
42.897	211.200	1755.781	4778.625	401.693
43.186	212.200	1758.405	4772.537	396.700
43.474	212.900	1771.141	4808.008	405.552
43.760	213.900	1757.106	4861.080	405.985
44.049	214.600	1802.639	4740.581	405.641
44.338	215.600	1782.209	4840.422	403.731
44.630	216.600	1769.690	4715.388	404.762
44.920	217.200	1780.898	4776.600	393.287
45.210	218.200	1729.544	4872.874	408.023
45.499	219.200	1786.336	4742.848	390.167
45.785	219.900	1739.797	4792.495	389.657
46.073	220.900	1772.390	4742.542	408.762
46.357	221.600	1743.962	4826.717	397.210
46.646	222.500	1787.699	4870.493	403.107
46.936	223.500	1814.369	4737.995	401.502
47.228	224.200	1789.304	4726.214	399.910
47.518	225.200	1822.406	4731.805	393.898
47.812	226.200	1702.836	4927.004	406.533
48.103	226.900	1827.105	4784.509	393.019
48.391	227.800	1760.023	4773.441	390.905
48.680	228.500	1744.051	4905.645	451.442
48.968	229.500	1790.807	4733.525	390.192
49.260	230.500	1779.395	4883.433	394.446
49.552	231.200	1787.431	4802.493	382.002
49.845	232.200	1765.385	4868.862	404.941
50.135	233.100	1779.598	4763.137	406.405
50.420	233.800	1734.843	4692.857	386.129
50.721	234.800	1827.195	4852.814	398.649
51.013	235.800	1818.687	4797.220	393.669
51.305	236.400	1766.505	5015.484	384.499
51.594	237.400	1805.543	4814.057	407.131
51.881	238.400	1684.572	4882.656	400.687
52.184	239.100	1804.587	4873.002	404.177
52.471	240.100	1744.497	4683.432	385.441
52.775	241.100	1774.708	4772.639	412.150
53.065	241.700	1724.131	4799.067	397.363
53.354	242.700	1736.842	4686.540	395.771
53.643	243.700	1799.595	4768.563	399.107
53.929	244.400	1705.128	4730.277	390.434
54.278	245.400	1747.452	4749.178	416.824
54.567	246.300	1767.079	4751.458	402.750
54.857	247.300	1774.466	4758.170	391.682
55.146	248.000	1774.224	4804.021	403.693
55.439	249.000	1711.471	4816.885	391.007
55.764	250.000	1782.719	4779.414	404.431
56.056	251.000	1781.216	4729.169	383.021
56.346	251.700	1769.626	4753.215	402.788
56.636	252.600	1762.863	4795.513	391.364
56.926	253.300	1704.071	4657.756	377.532
57.268	254.600	1783.381	4782.968	408.978
57.562	255.300	1740.014	4675.192	383.722
57.853	256.300	1734.817	4729.475	391.466
58.142	256.900	1785.750	4758.730	390.549
58.434	257.900	1769.804	4695.023	386.014
58.724	258.900	1810.905	4799.449	384.040
59.012	259.600	1779.497	4730.787	378.920
59.302	260.600	1748.050	4906.027	410.532
59.589	261.500	1770.492	4700.907	409.997
59.879	262.200	1758.813	4755.928	388.243
60.169	263.200	1788.820	4826.947	392.599
60.461	264.200	1676.892	4784.585	388.867
60.750	264.900	1763.691	4811.803	398.318
61.036	265.800	1740.205	4633.709	384.652
61.325	266.500	1742.968	4800.901	416.607
61.610	267.500	1742.841	4726.405	386.575
61.900	268.500	1767.817	4760.424	394.981
62.190	269.200	1785.788	4820.247	398.331
62.477	270.100	1698.174	4653.132	391.300
62.765	270.800	1749.833	4716.267	393.580
63.057	271.800	1728.169	4694.704	389.479
63.348	272.800	1778.949	4744.440	390.498
63.638	273.400	1750.063	4749.102	396.751
63.929	274.400	1751.158	4767.697	426.478
64.216	275.400	1833.677	4856.610	386.600
64.514	276.100	1769.218	4554.310	399.961
64.801	277.100	1771.906	4856.623	397.095
65.093	278.000	1747.643	4695.316	393.249
65.386	278.700	1755.705	4778.625	399.974
65.671	279.700	1740.752	4794.622	409.704
65.961	280.700	1752.584	4841.186	405.183
66.273	281.300	1739.542	4872.976	400.267
66.565	282.300	1784.260	4576.892	374.832
66.854	283.300	1750.343	4858.495	400.547
67.144	284.000	1746.102	4855.948	405.157
67.433	285.000	1796.780	4721.744	394.841
67.724	286.000	1776.465	4783.630	395.083
68.015	286.600	1791.150	4697.672	389.084
68.303	287.600	1768.225	4821.152	398.967
68.596	288.600	1763.742	4512.611	394.344
68.885	289.300	1740.561	4742.084	394.624
69.171	290.300	1725.418	4763.086	393.249
69.460	290.900	1764.608	4707.912	419.690
69.744	291.900	1732.588	4872.683	402.979
70.035	292.900	1788.399	4743.306	428.490
70.325	293.600	1725.825	4759.584	402.495
70.614	294.600	1797.786	4677.930	399.668
70.903	295.200	1775.905	4626.628	382.601
71.195	296.200	1713.216	4816.388	404.966
71.486	297.200	1780.439	4682.133	387.148
71.774	297.800	1736.779	4727.730	381.710
72.063	298.800	1741.147	4732.417	395.529
72.352	299.800	1738.689	4769.123	381.748
72.643	300.500	1756.495	4678.249	391.784
72.934	301.500	1734.168	4670.390	389.058
73.220	302.500	1728.054	4769.518	390.867
73.510	303.100	1800.512	4833.595	404.253
73.795	304.100	1753.629	4776.689	399.961
74.086	304.800	1787.240	4765.825	388.957
74.378	305.800	1740.561	4776.765	391.886
74.681	306.800	1774.886	4658.635	399.706
74.972	307.400	1758.290	4694.080	388.536
75.258	308.400	1700.696	4737.906	384.104
75.548	309.400	1744.331	4744.300	418.199
75.831	310.100	1720.043	4738.339	399.884
76.120	311.000	1765.627	4681.586	391.911
76.410	312.000	1762.621	4673.192	393.796
76.702	312.700	1815.668	4672.670	380.512
76.993	313.700	1769.779	4658.749	380.780
77.281	314.300	1718.871	4799.691	392.217
77.571	315.300	1773.065	4712.255	385.925
77.857	316.300	1752.202	4727.946	393.975
78.146	317.000	1785.483	4704.524	414.022
78.437	317.900	1745.796	4810.924	381.264
78.729	318.900	1764.761	4705.186	388.587
79.020	319.600	1814.535	4744.300	380.589
79.310	320.600	1742.816	4861.666	396.114
79.600	321.600	1778.057	4704.129	416.047
79.886	322.200	1749.540	4785.706	395.847
80.175	323.200	1788.552	4708.077	420.556
80.463	323.900	1827.360	4739.473	394.917
80.758	324.900	1773.549	4629.303	379.404
81.047	325.900	1837.014	4748.401	386.842
81.341	326.500	1703.435	4730.990	398.789
81.655	327.500	1789.762	4726.354	416.162
81.958	328.500	1784.859	4717.757	382.155
82.253	329.500	1791.303	4710.727	389.835
82.544	330.200	1768.059	4690.208	394.217
82.832	331.100	1714.311	4706.320	382.155
83.121	332.100	1817.438	4784.585	398.738
83.409	332.800	1763.754	4724.711	386.295
83.699	333.800	1772.530	4695.265	396.063
83.981	334.400	1744.777	4701.646	388.040
84.331	335.800	1775.230	4571.797	380.652
84.622	336.400	1796.614	4825.176	386.256
84.912	337.400	1774.555	4616.413	387.912
85.202	338.100	1829.704	4711.847	415.996
85.508	339.000	1782.248	4684.846	386.537
85.815	340.000	1801.174	4641.262	395.096
86.105	341.000	1764.977	4757.317	396.751
86.395	341.700	1727.150	4676.160	389.109
86.684	342.700	1812.790	4707.211	406.877
86.971	343.700	1744.675	4715.783	386.307
87.260	344.300	1756.762	4696.844	395.134
87.565	345.300	1787.075	4660.851	379.939
87.858	346.300	1748.369	4717.719	387.173
88.151	346.900	1782.897	4683.840	385.658
88.454	347.900	1722.705	4668.454	378.627
88.743	348.900	1757.119	4798.048	403.922
89.030	349.600	1747.133	4733.754	383.365
89.319	350.600	1773.434	4739.689	379.914
89.610	351.600	1798.423	4707.351	385.976
89.905	352.200	1781.076	4641.670	386.588
90.197	353.200	1817.311	4783.630	386.549
90.484	353.900	1771.154	4715.337	381.544
90.774	354.900	1801.314	4825.215	419.066
91.063	355.900	1773.689	4757.902	391.427
91.354	356.500	1774.733	4728.469	385.696
91.644	357.500	1805.275	4740.161	392.727
91.970	358.500	1737.950	4735.423	385.760
92.260	359.500	1799.047	4798.443	419.078
92.548	360.200	1757.463	4770.397	388.778
92.837	361.100	1838.084	4804.887	401.222
93.129	362.100	1788.055	4772.702	397.706
93.422	362.800	1837.562	4624.106	382.818
93.715	363.800	1796.207	4809.676	391.771
94.006	364.400	1765.690	4683.139	381.302
94.295	365.400	1786.896	4850.637	407.743
94.582	366.400	1791.634	4663.296	384.410
94.884	367.100	1798.767	4771.645	397.082
95.175	368.100	1816.203	4807.626	395.452
95.468	369.000	1785.712	4637.352	390.523
95.759	369.700	1794.577	4820.655	399.681
96.048	370.700	1815.171	4766.258	384.677
96.339	371.700	1800.168	4812.962	406.444
96.624	372.400	1825.857	4754.642	378.105
96.944	373.400	1785.967	4606.721	383.913
97.234	374.300	1802.473	4815.395	393.898
97.566	375.300	1743.682	4757.813	393.109
97.855	376.000	1794.602	4729.449	396.331
98.142	377.000	1796.372	4741.511	390.370
98.432	378.000	1812.089	4802.607	403.285
98.735	378.600	1784.591	4737.639	397.605
99.026	379.600	1793.354	4671.205	384.996
99.315	380.600	1783.610	4831.825	394.739
99.605	381.300	1723.660	4761.150	388.167
99.895	382.300	1785.343	4791.654	398.534
100.183	383.200	1778.745	4823.126	403.947
100.473	383.900	1791.418	4684.286	397.554
100.763	384.900	1743.720	4768.779	388.052
101.052	385.900	1783.114	4721.018	388.116
101.342	386.500	1804.995	4778.434	385.479
101.630	387.500	1775.752	4788.266	388.307
101.920	388.200	1790.475	4794.736	406.367
102.207	389.200	1788.832	4826.819	397.898
102.492	390.200	1757.896	4713.987	396.598
102.779	390.800	1836.046	4838.091	404.482
103.073	391.800	1851.559	4654.546	387.492
103.366	392.800	1806.485	4876.746	392.574
103.659	393.500	1759.360	4888.438	392.803
103.950	394.500	1797.289	4797.182	402.381
104.237	395.100	1747.821	4894.170	398.178
104.528	396.100	1831.474	4747.955	403.591
104.819	397.100	1813.248	4859.234	393.542
105.110	397.700	1790.488	4643.720	385.658
105.399	398.700	1772.237	4757.444	392.497
105.692	399.700	1759.984	4807.027	386.728
105.983	400.400	1805.403	4776.905	387.301
106.270	401.400	1739.784	4826.730	399.974
106.559	402.400	1823.514	4723.527	406.800
106.845	403.000	1756.877	4759.495	399.706
107.135	404.000	1814.726	4685.916	392.395
107.425	404.700	1787.215	4699.544	384.804
107.718	405.600	1758.876	4914.472	395.452
108.009	406.600	1744.611	4693.825	390.727
108.295	407.300	1769.549	4826.514	385.288
108.586	408.300	1824.087	4772.091	408.456
108.879	409.300	1803.403	4770.894	393.134
109.171	409.900	1808.612	4724.355	394.675
109.464	410.900	1792.819	4704.244	388.702
109.756	411.900	1714.120	4879.319	397.592
110.046	412.600	1822.851	4760.259	394.612
110.335	413.600	1759.984	4808.823	397.859
110.627	414.500	1749.923	4760.462	403.170
110.916	415.200	1797.213	4769.353	393.682
111.209	416.200	1792.564	4693.163	398.114
111.497	416.800	1818.801	4758.769	383.442
111.790	417.800	1699.830	4905.416	403.119
112.079	418.800	1814.089	4780.038	396.598
112.367	419.500	1755.527	4817.662	400.190
112.656	420.500	1757.450	4845.427	420.110
112.945	421.500	1755.909	4780.319	395.758
113.236	422.100	1793.201	4819.916	392.981
113.527	423.100	1844.249	4788.903	388.702
113.822	424.100	1709.624	4906.346	399.286
114.114	424.800	1818.814	4771.913	399.719
114.399	425.700	1782.146	4793.628	403.438
114.686	426.400	1794.182	4876.415	398.458
114.978	427.400	1794.194	4806.556	390.689
115.272	428.400	1784.069	4850.535	399.859
115.564	429.000	1824.647	4835.900	385.441
115.856	430.000	1754.469	4930.137	402.801
116.147	431.000	1810.765	4854.228	401.680
116.434	431.700	1757.832	4846.242	387.734
116.723	432.700	1799.900	4929.182	401.222
117.014	433.600	1818.661	4790.482	392.650
117.306	434.300	1752.572	4820.553	401.527
117.599	435.300	1827.742	4863.615	396.993
117.891	436.300	1693.296	4874.950	401.082
118.180	436.900	1821.158	4893.406	409.284
118.465	437.900	1748.458	4811.039	390.383
118.755	438.600	1750.114	4914.064	398.891
119.045	439.600	1820.737	4849.656	391.746
119.339	440.600	1759.577	4713.873	404.954
119.631	441.200	1818.699	4827.303	396.828
119.922	442.200	1693.029	4858.762	404.329
120.215	443.200	1826.328	4951.789	398.496
120.504	443.900	1743.771	4808.683	387.823
120.792	444.900	1787.712	4910.714	417.130
121.083	445.900	1838.568	4869.143	377.201
121.378	446.500	1787.189	4850.025	405.196
121.670	447.500	1825.080	4966.296	401.655
121.962	448.500	1731.824	4917.363	404.826
122.253	449.200	1812.280	4995.628	405.883
122.571	450.200	1815.057	4846.777	381.557
122.864	451.100	1768.365	4872.530	404.571
123.154	451.800	1847.853	4931.972	403.349
123.448	452.800	1712.057	4858.826	401.094
123.737	453.800	1803.237	4958.158	405.985
124.045	454.800	1766.289	4894.628	396.356
124.336	455.400	1773.103	4930.239	398.611
124.628	456.400	1819.604	4971.072	411.615
124.920	457.100	1773.893	4666.098	392.790
125.210	458.100	1784.540	4963.583	414.022
125.509	459.100	1737.670	4903.429	402.725
125.803	460.100	1791.418	4912.459	410.621
126.088	460.700	1763.716	4901.200	392.255
126.377	461.700	1741.262	4915.541	423.842
126.664	462.400	1817.196	4957.763	398.687
126.959	463.300	1755.348	4726.533	397.477
127.248	464.300	1764.480	5005.181	412.468
127.540	465.000	1780.146	4833.137	391.504
127.832	466.000	1774.300	5022.298	411.309
128.119	467.000	1785.050	4973.187	397.261
128.409	467.600	1781.356	4934.914	406.240
128.701	468.600	1802.639	4949.166	403.731
128.992	469.600	1774.682	4806.110	397.414
129.283	470.300	1774.364	4975.174	402.406
129.574	471.300	1724.526	4892.590	396.140
129.864	471.900	1750.317	5001.385	405.374
130.152	472.900	1798.130	4966.029	403.553
130.443	473.900	1786.285	4914.905	416.544
130.734	474.600	1788.399	4884.707	403.922
131.026	475.600	1772.211	4796.519	386.460
131.317	476.600	1749.120	4987.795	402.610
131.609	477.200	1721.928	4934.366	395.363
131.900	478.200	1790.603	4913.911	424.759
132.200	479.200	1771.804	4981.975	410.545
132.486	479.800	1729.621	4936.353	418.340
132.772	480.800	1724.501	4998.876	404.813
133.063	481.500	1814.305	4825.788	397.082
133.354	482.500	1765.155	4981.937	398.776
133.648	483.500	1733.849	4923.655	406.546
133.937	484.100	1737.275	4888.451	402.967
134.221	485.100	1782.120	4942.224	404.215
134.511	486.100	1802.486	4892.705	418.441
134.797	486.800	1726.844	4998.723	407.947
135.087	487.800	1768.887	4879.294	417.435
135.377	488.700	1724.029	4895.418	389.300
135.668	489.400	1782.069	4987.693	406.265
135.960	490.400	1783.560	4900.487	397.031
136.250	491.100	1685.591	5011.842	410.787
136.543	492.100	1802.053	4874.530	411.424
136.829	493.000	1739.848	4980.204	397.210
137.119	493.700	1793.443	4806.263	393.478
137.410	494.700	1795.468	4910.358	400.649
137.703	495.700	1757.017	4973.671	406.405
138.005	496.300	1744.522	4857.680	400.891
138.290	497.300	1753.323	4912.574	396.013
138.582	498.300	1789.890	4863.577	416.798
138.875	499.000	1779.879	4892.425	387.683
139.168	500.000	1785.024	4833.162	396.497
139.461	500.900	1729.213	4770.703	391.160
139.751	501.600	1737.237	4873.473	399.948
140.042	502.600	1800.486	4845.033	400.165
140.330	503.600	1745.592	4875.409	395.108
140.620	504.300	1796.869	4833.391	410.023
140.912	505.300	1778.223	4845.860	398.725
141.206	506.200	1779.216	4726.902	400.903
141.495	506.900	1802.269	4807.638	388.651
141.787	507.900	1687.718	4996.596	410.634
142.078	508.600	1785.253	4798.353	384.817
142.368	509.500	1721.660	4903.022	401.846
142.660	510.500	1831.398	4837.085	409.118
142.953	511.200	1751.107	4878.109	400.483
143.255	512.200	1776.312	4800.671	395.325
143.548	513.200	1805.377	4759.991	394.140
143.841	513.800	1701.932	4901.977	404.788
144.129	514.800	1796.512	4802.429	393.682
144.417	515.800	1722.909	4713.503	379.481
144.705	516.400	1763.652	4904.423	408.125
145.004	517.400	1788.820	4879.765	399.515
145.319	518.400	1716.133	4902.347	400.801
145.611	519.400	1788.501	4777.262	391.784
145.898	520.100	1764.735	4883.267	388.396
146.199	521.100	1801.441	4910.714	421.702
146.492	522.100	1759.946	4810.771	386.295
146.803	522.700	1775.892	4783.006	399.426
147.096	523.700	1793.952	4840.842	383.938
147.407	524.700	1718.438	4867.016	405.743
147.715	525.700	1789.507	4914.179	413.067
148.003	526.400	1742.816	4842.345	396.420
148.300	527.300	1769.014	4905.225	405.348
148.592	528.300	1808.205	4855.655	388.371
148.886	529.000	1684.343	4898.704	396.942
149.177	530.000	1782.655	4845.236	400.407
149.463	531.000	1730.054	4723.667	387.836
149.765	531.600	1752.330	4857.285	393.363
150.057	532.600	1780.630	4800.773	396.904
150.350	533.600	1753.782	4771.772	397.197
150.642	534.300	1771.422	4850.866	393.045
150.937	535.200	1687.196	4889.546	393.682
151.228	536.200	1735.811	4863.921	401.413
151.537	536.900	1791.227	4852.407	404.928
151.828	537.900	1713.114	4864.647	398.751
152.126	538.900	1773.090	4789.591	385.136
152.418	539.500	1736.982	4805.562	400.865
152.710	540.500	1798.665	4865.793	403.438
152.999	541.500	1723.838	4790.011	385.097
153.290	542.200	1716.069	4895.775	412.137
153.581	543.100	1771.638	4788.636	391.185
153.873	544.100	1739.606	4782.051	396.433
154.164	544.800	1781.955	4858.419	387.275
154.456	545.800	1727.761	4800.633	394.497
154.747	546.800	1758.889	4846.484	394.229
155.035	547.400	1757.513	4763.901	388.511
155.325	548.400	1754.941	4866.035	415.219
155.616	549.400	1781.993	4834.792	393.070
155.922	550.100	1758.316	4711.313	395.771
156.214	551.100	1815.159	4900.411	391.860
156.506	552.000	1708.924	4812.414	395.070
156.795	552.700	1763.461	4895.023	406.214
157.083	553.700	1766.327	4781.554	389.084
157.373	554.700	1743.261	4925.068	410.303
157.667	555.400	1782.935	4872.276	399.388
157.959	556.300	1751.629	4729.831	395.439
158.252	557.000	1765.601	4910.982	393.032
158.545	558.000	1690.112	4792.023	403.667
158.834	559.000	1768.989	4866.876	393.554
159.131	559.600	1777.013	4826.858	392.446
159.422	560.600	1764.811	4771.429	398.929
159.712	561.600	1751.260	4974.575	399.693
160.003	562.300	1770.874	4772.664	397.044
160.295	563.300	1774.937	4909.848	389.300
160.586	564.300	1748.305	4766.054	385.849
160.875	564.900	1744.357	4917.974	410.634
161.162	565.900	1716.515	4871.206	397.350
161.453	566.900	1759.360	4743.676	400.203
161.747	567.500	1755.450	4826.374	394.904
162.038	568.500	1766.811	4814.070	394.064
162.330	569.500	1759.513	4706.307	398.776
162.621	570.200	1735.823	4772.957	394.293
162.912	571.200	1738.014	4784.789	406.915
163.502	572.800	1734.664	4593.424	393.134
163.826	573.800	1698.671	4792.036	395.070
164.118	574.800	1717.304	4682.579	382.958
164.428	575.800	1732.346	4813.153	414.213
164.713	576.400	1753.565	4869.461	392.102
165.007	577.400	1768.136	4820.184	399.795
165.300	578.400	1731.684	4897.074	392.727
165.592	579.100	1722.514	4751.636	401.706
165.899	580.100	1757.004	4869.053	390.498
166.192	581.100	1737.797	4911.835	402.317
166.509	582.100	1775.828	4880.236	419.524
166.799	582.700	1749.515	4867.869	385.518
167.092	583.700	1762.366	4773.275	395.516
167.397	584.700	1743.096	4820.247	387.734
167.703	585.400	1706.096	4748.006	394.013
167.991	586.400	1696.493	4835.353	404.635
168.278	587.300	1708.083	4943.180	407.806
168.570	588.000	1805.836	4831.978	407.947
168.872	589.000	1742.281	4889.686	407.119
169.166	590.000	1764.964	4727.666	393.198
169.457	590.600	1735.632	4742.046	399.744
169.749	591.600	1673.084	4801.346	393.886
170.057	592.600	1783.356	4833.531	407.463
170.345	593.300	1680.050	4840.116	404.317
170.631	594.300	1691.106	4769.251	418.416
170.913	595.300	1692.481	4890.591	416.467
171.196	595.900	1702.263	4888.184	405.017
171.485	596.900	1743.045	4805.448	389.007
171.776	597.600	1695.309	4717.439	413.780
172.060	598.500	1736.345	4865.067	409.322
172.344	599.500	1724.819	4748.401	410.545
172.634	600.200	1726.615	4759.291	430.414
172.920	601.200	1727.850	4847.580	396.853
173.209	601.800	1771.205	4858.036	407.845
173.500	602.800	1747.375	4759.316	393.096
173.792	603.800	1654.463	4719.693	396.637
174.080	604.500	1737.517	4900.844	422.084
174.368	605.500	1721.164	4929.119	407.832
174.655	606.500	1723.775	4901.531	410.659
174.944	607.100	1746.229	4855.247	400.992
175.230	608.100	1718.553	4866.774	411.678
175.517	608.800	1756.087	4886.400	396.789
175.807	609.800	1703.116	4875.524	400.674
176.090	610.800	1761.411	4771.327	411.029
176.373	611.400	1704.059	4824.820	409.883
176.653	612.400	1723.889	4851.885	433.572
176.932	613.100	1642.949	4797.143	404.673
177.214	614.100	1716.477	4899.137	431.000
177.496	614.700	1714.885	4834.347	398.305
177.785	615.700	1775.981	4726.698	403.170
178.074	616.700	1769.307	4878.771	397.643
178.369	617.400	1692.023	4956.578	405.132
178.660	618.400	1763.627	4937.677	419.575
178.947	619.300	1688.087	4862.380	400.190
179.235	620.000	1761.334	4905.199	403.119
179.527	621.000	1765.614	4910.256	404.801
179.821	622.000	1771.091	4877.994	391.657
180.112	622.600	1771.931	4884.643	403.922
180.701	624.600	1748.139	4895.520	417.155
180.991	625.300	1761.729	4765.557	386.944
181.283	626.300	1750.483	4738.225	397.999
181.576	627.300	1763.958	4862.481	390.358
181.869	627.900	1718.234	4887.738	400.343
182.160	628.900	1814.547	4937.130	403.463
182.452	629.600	1680.432	4761.609	399.948
182.741	630.600	1764.824	4903.990	411.385
183.028	631.600	1741.822	4842.052	397.745
183.319	632.200	1760.901	4865.500	390.383
183.614	633.200	1766.493	4912.548	401.043
183.906	634.200	1735.428	4805.690	392.243
184.197	634.900	1788.871	4967.710	411.997
184.483	635.900	1706.759	4912.905	404.177
184.774	636.900	1743.376	4988.534	422.301
185.060	637.500	1783.661	4863.042	403.323
185.349	638.500	1730.716	4913.542	403.069
185.640	639.200	1768.136	4868.684	398.585
185.934	640.100	1681.630	4960.399	405.323
186.225	641.100	1802.218	4991.438	405.960
186.513	641.800	1712.758	4890.998	397.961
186.803	642.800	1744.637	5012.338	418.671
187.095	643.800	1797.799	4932.647	404.801
187.388	644.400	1772.466	4796.316	398.318
187.679	645.400	1757.450	4970.436	404.024
187.971	646.400	1704.071	4866.786	398.980
188.262	647.000	1770.173	4977.772	410.634
188.551	648.000	1726.959	4939.142	407.068
188.843	649.000	1741.860	4941.447	425.052
189.132	649.700	1765.703	4945.841	411.080
189.426	650.700	1770.759	4760.666	386.155
189.719	651.600	1766.696	5016.147	407.475
190.028	652.300	1726.729	4850.917	390.370
190.317	653.300	1736.396	4953.038	418.034
190.602	654.300	1714.095	4927.437	411.067
190.892	654.900	1756.813	4948.503	396.433
191.185	655.900	1736.295	4959.635	412.404
191.477	656.900	1749.273	4720.941	387.594
191.769	657.500	1744.306	5024.285	404.839
192.059	658.500	1733.543	4883.637	394.777
192.350	659.200	1753.349	4911.147	415.754
192.635	660.200	1736.779	4956.387	404.699
192.925	661.200	1716.999	4763.150	399.120
193.216	661.800	1770.708	5039.034	410.277
193.511	662.800	1789.393	4726.915	403.476
193.803	663.800	1742.599	5027.877	406.113
194.093	664.500	1709.153	4900.079	396.815
194.383	665.500	1758.418	5016.745	415.448
194.672	666.500	1732.970	5011.536	405.730
194.963	667.100	1716.986	4941.677	440.654
195.252	668.100	1747.171	5014.071	406.189
195.546	669.100	1772.008	4833.608	395.821
195.836	669.700	1739.568	4994.125	410.991
196.128	670.700	1737.670	4913.949	403.374
196.420	671.400	1737.110	4957.585	428.236
196.705	672.400	1747.719	5029.456	408.813
196.996	673.400	1802.855	4949.968	416.276
197.289	674.000	1766.047	5023.980	404.775
197.583	675.000	1755.730	4966.398	413.614
197.875	676.000	1768.378	4973.492	396.891
198.164	676.700	1722.526	5007.104	400.394
198.453	677.600	1741.364	4981.682	422.734
198.741	678.600	1770.899	4978.587	403.476
199.033	679.300	1764.722	4991.922	415.359
199.324	680.300	1727.022	5039.251	396.395
199.613	680.900	1735.110	4896.500	403.260
199.906	681.900	1774.529	5005.155	398.560
200.197	682.900	1735.046	5043.033	401.871
200.487	683.600	1761.220	5039.123	426.758
200.774	684.600	1751.935	5060.355	409.106
201.065	685.600	1781.445	4987.069	414.735
201.357	686.200	1773.829	5056.559	412.710
201.651	687.200	1770.874	4923.222	421.791
201.941	688.200	1761.080	5018.656	410.328
202.227	688.900	1742.090	5091.343	413.474
202.518	689.800	1792.500	5067.869	420.887
202.806	690.500	1722.858	5123.731	416.467
203.122	691.500	1737.963	5015.230	413.156
203.413	692.500	1795.723	5095.062	409.883
203.707	693.500	1726.029	4982.306	408.507
203.997	694.100	1782.808	5045.199	420.861
204.284	695.100	1741.555	5047.529	420.696
204.573	696.100	1811.210	5079.039	430.630
204.864	696.800	1780.095	5137.321	422.415
205.155	697.800	1783.292	5021.279	405.081
205.450	698.800	1758.112	5042.155	407.297
205.741	699.400	1730.321	5114.396	405.629
206.032	700.400	1778.809	4983.860	418.365
206.318	701.100	1759.602	5101.761	415.219
206.633	702.100	1762.302	5061.794	416.225
206.925	703.000	1763.028	5013.778	406.507
207.218	704.000	1761.283	5113.517	415.932
207.506	704.700	1725.125	5071.869	404.788
207.793	705.700	1700.582	5072.709	414.480
208.082	706.300	1768.976	4977.441	429.089
208.366	707.300	1725.430	5072.123	404.890
208.656	708.300	1797.684	5041.403	425.408
208.949	709.000	1750.305	4970.971	406.393
209.240	710.000	1784.782	5057.846	405.578
209.533	711.000	1771.383	5036.054	404.406
209.823	711.600	1686.635	5072.200	409.984
210.111	712.600	1803.619	4982.726	420.836
210.398	713.600	1728.538	5039.938	397.324
210.687	714.300	1791.125	5033.545	444.029
210.977	715.200	1777.013	4983.567	403.081
211.271	715.900	1731.900	5005.474	414.086
211.562	716.900	1772.874	5008.670	406.635
211.891	717.900	1719.699	5120.637	416.404
212.181	718.900	1748.891	5146.950	435.139
212.473	719.500	1740.523	5031.418	396.955
212.768	720.500	1759.118	5127.119	428.083
213.061	721.500	1785.050	4946.185	398.267
213.353	722.200	1716.859	4976.715	409.462
213.645	723.100	1796.207	4960.985	402.941
213.932	724.100	1709.089	5038.321	398.127
214.221	724.800	1774.695	5053.923	432.171
214.514	725.800	1787.189	4989.413	395.376
214.807	726.800	1746.242	4939.320	400.891
215.100	727.400	1793.392	4979.122	406.940
215.392	728.400	1734.015	5002.557	416.021
215.683	729.400	1767.282	5063.412	415.843
215.969	730.100	1680.089	4947.013	405.170
216.260	731.100	1767.894	5106.308	429.242
216.551	731.700	1786.081	5085.408	404.482
216.858	732.700	1756.125	4979.606	403.858
217.151	733.700	1756.686	5081.345	410.265
217.443	734.700	1721.151	5043.173	404.941
217.735	735.300	1723.214	5069.003	429.344
218.021	736.300	1738.562	5035.506	407.921
218.311	737.000	1738.613	5089.076	437.342
218.600	738.000	1779.726	5064.392	416.505
218.896	739.000	1762.837	4900.704	396.840
219.189	739.600	1767.715	5114.918	409.449
219.481	740.600	1707.357	5061.132	400.598
219.772	741.600	1737.428	5147.281	425.574
220.060	742.300	1755.730	5017.000	409.590
220.349	743.300	1746.216	5145.243	441.634
220.642	744.200	1746.929	5017.509	414.773
220.933	744.900	1777.955	4933.207	407.259
221.226	745.900	1776.937	5062.839	405.603
221.519	746.900	1745.108	5056.305	415.346
221.810	747.500	1742.293	5132.138	427.102
222.096	748.500	1769.791	5048.688	401.795
222.386	749.500	1700.824	5011.129	401.438
222.676	750.200	1799.442	5086.159	412.977
222.970	751.200	1752.661	5087.407	415.474
223.255	751.800	1723.558	5237.939	422.937
223.544	752.800	1737.390	5042.906	404.801
223.836	753.800	1734.664	5126.852	431.547
224.122	754.500	1760.672	4972.028	417.448
224.411	755.500	1749.388	5088.146	422.364
224.702	756.400	1776.185	5157.254	412.162
224.995	757.100	1752.432	5008.747	405.145
225.287	758.100	1738.613	5150.300	413.793
225.574	758.700	1696.175	5080.173	413.270
225.864	759.700	1756.265	5125.324	437.635
226.151	760.700	1774.682	5121.757	421.969
226.442	761.400	1772.644	5081.510	428.261
226.735	762.400	1732.155	5149.905	421.957
227.025	763.400	1796.296	5082.185	413.767
227.320	764.000	1720.399	5129.004	419.932
227.608	765.000	1764.824	5096.883	416.556
227.898	766.000	1787.202	5058.979	433.330
228.191	766.700	1795.532	5162.922	413.360
228.483	767.600	1767.499	5104.436	421.995
228.787	768.600	1751.591	5186.637	419.804
229.079	769.300	1757.399	5045.848	410.685
229.369	770.300	1763.601	5198.342	426.797
229.657	771.300	1714.057	5174.639	414.824
229.948	771.900	1791.647	5133.768	445.723
230.235	772.900	1745.643	5215.128	418.136
230.540	773.900	1791.800	5008.123	409.233
230.833	774.600	1727.812	5162.781	422.963
231.126	775.500	1730.194	5112.065	419.116
231.420	776.500	1753.769	5123.579	420.670
231.706	777.200	1770.415	5268.252	421.829
231.996	778.200	1776.198	5100.003	417.843
232.288	779.200	1723.265	5225.279	423.472
232.581	779.800	1782.350	4981.325	410.481
232.874	780.800	1756.762	5175.683	405.374
233.166	781.500	1722.705	5121.681	411.220
233.456	782.500	1753.896	5122.076	425.816
233.742	783.500	1770.033	5198.010	412.557
234.034	784.100	1753.259	5179.963	442.615
234.324	785.100	1759.793	5170.181	418.874
234.618	786.100	1792.513	5041.874	418.824
234.912	786.700	1762.735	5148.631	407.030
235.204	787.700	1720.170	5206.009	421.829
235.495	788.700	1801.518	5119.885	433.356
235.782	789.400	1737.008	5228.438	413.945
236.072	790.400	1773.281	5172.716	449.225
236.362	791.400	1767.091	5193.922	416.353
236.655	792.000	1788.119	5154.592	415.971
236.948	793.000	1740.689	5158.298	413.245
237.239	794.000	1717.075	5209.575	425.587
237.529	794.600	1799.595	5128.087	429.611
237.817	795.600	1706.606	5214.861	420.288
238.106	796.300	1787.419	5116.586	433.929
238.396	797.300	1765.525	5151.089	415.601
238.690	798.300	1769.957	5102.538	415.856
238.980	798.900	1738.944	5216.275	409.042
239.272	799.900	1683.846	5230.807	428.516
239.560	800.900	1755.527	5036.576	422.644
239.844	801.600	1768.123	5192.292	416.811
240.135	802.500	1791.494	5182.039	439.316
240.427	803.500	1726.360	5100.679	414.302
240.719	804.200	1776.274	5155.076	419.804
241.014	805.200	1807.529	5142.569	424.835
