Tue, Oct 24, 2017	11:17 AM
 Notes: H2_top chamber_3.3E-06_60 sec_200 L_102417
 waiting time: 50.000
 time(s)	 temp (K)	 MS1=1.971	 MS2=17.737	 MS3=27.883	 MS4=125.586	 MS5=109.505	 MS6=125.586	 MS7=109.505	 MS8=125.586
44.243	154.600	14773.362	2146.496	28034.960
44.895	156.900	14751.876	2122.818	27268.812
45.590	159.600	14904.356	2142.137	26914.102
46.253	161.800	14904.815	2156.183	26436.612
46.906	164.000	14946.692	2124.397	26136.363
47.597	166.200	14994.760	2148.845	25691.721
48.250	168.400	14856.888	2167.791	25469.903
48.902	170.500	14731.892	2157.024	24848.021
49.553	172.600	14746.233	2179.344	24442.721
50.206	174.800	14737.827	2225.652	24402.079
50.857	176.900	14659.753	2188.189	23993.392
51.507	179.000	14580.086	2199.704	23502.835
52.161	180.700	14721.525	2227.437	23531.276
52.811	182.800	14718.162	2244.817	23291.244
53.463	184.800	14566.446	2222.408	22762.962
54.116	186.900	14538.909	2279.651	22545.997
54.768	188.900	14392.759	2271.659	22227.662
55.421	190.900	14249.423	2271.167	22031.164
56.072	193.000	14396.631	2300.120	21717.312
56.772	195.000	14285.862	2327.433	21645.759
57.444	197.000	14150.792	2303.204	21089.329
58.098	199.000	14114.913	2351.645	21047.604
58.752	201.100	14240.010	2376.756	20964.945
59.405	203.100	14040.621	2350.694	20628.282
60.098	205.400	14003.788	2384.252	20410.642
60.780	207.400	14013.238	2398.068	20382.252
61.448	209.400	13896.891	2396.395	19997.866
62.101	211.400	14015.187	2444.724	19949.595
62.783	213.400	13955.720	2447.865	19834.547
63.432	215.400	13810.117	2460.763	19553.224
64.077	217.400	13939.125	2466.043	19374.264
64.730	219.400	13831.451	2502.229	19317.128
65.386	221.400	13742.754	2484.447	19128.616
66.039	223.400	13874.271	2501.682	18957.184
66.692	225.300	13949.021	2548.659	19009.989
67.382	227.300	13862.668	2535.128	18713.917
68.061	229.300	13961.337	2570.900	18643.472
68.733	231.300	13997.929	2609.964	18602.792
69.426	233.300	14009.837	2617.525	18414.127
70.102	235.600	14057.446	2636.123	18279.299
70.752	237.300	14089.033	2660.532	18279.350
71.419	239.600	14149.161	2629.325	18037.497
72.101	241.600	14250.709	2697.724	18001.402
72.777	243.600	14225.848	2706.299	17916.858
73.429	245.500	14267.980	2702.590	17760.199
74.097	247.500	14387.588	2753.421	17698.708
74.780	249.500	14413.888	2783.341	17745.616
75.435	251.500	14274.870	2775.708	17594.014
76.122	253.500	14459.319	2832.342	17708.719
76.814	255.800	14629.287	2829.592	17675.515
77.495	257.700	14664.809	2845.828	17441.623
78.149	259.700	14695.619	2884.223	17406.457
78.822	261.700	14583.563	2917.234	17496.950
79.496	263.700	14653.143	2893.471	17228.491
80.149	265.700	14723.664	2971.597	17329.898
80.802	267.600	14635.859	2987.859	17226.963
81.455	269.600	14659.142	3007.368	17172.425
82.108	271.600	14669.840	3024.254	17075.539
82.763	273.600	14549.379	3082.139	17093.383
83.415	275.500	14508.189	3077.595	17045.137
84.081	277.500	14555.097	3122.440	16857.478
84.780	279.500	14345.277	3136.699	16928.917
85.432	281.500	14100.546	3137.253	16715.721
86.085	283.500	14189.307	3197.222	16746.658
86.752	285.500	14039.208	3233.393	16733.132
87.406	287.500	13831.234	3207.038	16635.214
88.080	289.500	13709.627	3253.187	16616.925
88.768	291.400	13642.098	3319.415	16661.783
89.422	293.400	13342.868	3295.236	16539.500
90.098	295.400	13319.675	3354.589	16668.495
90.747	297.400	13224.533	3392.524	16761.038
91.426	299.300	13187.814	3395.857	16714.486
92.081	301.300	13044.338	3425.375	16575.659
92.736	303.300	12876.332	3468.177	16614.556
93.389	305.300	12644.299	3459.529	16529.655
94.043	307.300	12580.235	3498.221	16455.134
94.694	309.200	12546.356	3556.248	16576.487
95.349	311.200	12425.920	3562.130	16585.784
96.000	313.200	12313.763	3601.135	16570.551
96.649	315.100	12331.059	3662.524	16635.469
97.303	317.100	12254.220	3670.085	16594.496
97.954	319.100	12084.672	3664.946	16495.941
98.607	321.100	12130.663	3729.819	16566.641
99.259	323.100	12023.754	3744.638	16622.669
99.911	325.000	12014.074	3766.592	16676.111
100.579	327.000	12102.898	3820.536	16622.784
101.231	329.000	12022.378	3886.520	16753.307
101.904	331.000	11961.332	3866.106	16779.327
102.556	333.000	12111.635	3916.687	16839.214
103.210	334.900	12118.233	3967.260	16940.533
103.883	336.900	12057.416	3977.971	16809.933
104.567	338.900	12198.332	3988.610	16935.591
105.216	340.900	12366.250	4087.585	17060.319
105.876	342.800	12302.300	4047.101	16977.035
106.561	344.800	12605.708	4098.904	16943.653
107.236	346.800	12756.367	4166.212	17117.913
107.890	348.800	12764.658	4144.230	16934.190
108.557	350.800	13157.693	4205.158	17035.445
109.226	352.700	13420.624	4274.146	17110.628
109.877	354.700	13526.247	4258.281	17018.976
110.530	356.700	13726.821	4281.775	16964.923
111.183	358.700	13998.986	4376.473	17152.238
111.867	360.700	14134.464	4365.920	17073.539
112.521	362.600	14399.726	4428.473	17014.226
113.175	364.600	14680.972	4493.941	17080.608
113.836	366.600	14710.418	4482.277	17178.781
114.489	368.600	14886.704	4501.923	17023.612
115.139	370.600	15007.700	4610.770	17209.794
115.790	372.500	14978.686	4641.140	17101.954
116.442	374.500	14855.296	4617.059	16932.165
117.094	376.500	14908.547	4691.067	17086.365
117.748	378.500	14951.494	4735.620	17172.629
118.433	380.500	14933.064	4770.998	17117.544
119.086	382.400	14767.401	4817.378	17125.313
119.741	384.400	14689.480	4880.113	17344.456
120.430	386.400	14433.630	4844.303	17191.441
121.094	388.400	14420.690	4965.050	17295.739
121.763	390.300	14260.491	4996.081	17425.740
122.417	392.300	14113.321	4997.325	17511.291
123.070	394.300	14039.208	5046.126	17464.599
123.718	396.300	13841.296	5140.927	17740.789
124.390	398.300	13610.078	5118.000	17761.027
125.063	400.200	13605.366	5169.404	17846.578
125.714	402.200	13327.380	5218.957	18072.586
126.366	404.200	13145.364	5215.582	18180.770
127.045	406.200	13116.898	5267.832	18413.656
127.699	408.100	12978.160	5336.316	18737.595
128.354	410.100	12869.900	5357.553	19055.802
129.005	412.100	12743.529	5380.618	19285.555
129.656	414.100	12744.153	5497.427	19805.113
130.310	416.000	12523.978	5532.394	20116.035
130.962	418.000	12507.752	5530.170	20400.083
131.616	420.000	12393.493	5613.141	20779.311
132.297	422.000	12330.524	5684.350	21334.735
132.983	423.900	12189.519	5652.540	21514.255
133.679	426.200	12074.356	5769.526	22060.738
134.331	427.900	11879.845	5779.156	22288.376
135.048	430.200	11822.072	5799.997	22512.754
135.700	432.200	11699.586	5878.927	22968.516
136.354	434.100	11583.557	5898.061	23157.652
137.008	436.100	11381.200	5917.678	23178.030
137.661	438.100	11351.346	6033.541	23636.657
138.314	440.100	11269.972	6066.048	23758.736
138.968	442.100	11196.547	6089.204	23752.852
139.621	444.000	11169.240	6158.177	23924.730
140.273	445.700	11007.945	6194.981	24038.314
140.924	447.700	10883.549	6187.416	23979.229
141.577	449.700	10916.561	6255.402	23836.084
142.230	451.700	10832.297	6364.365	24122.896
142.883	453.600	10746.606	6296.759	23994.462
143.536	455.600	10792.215	6385.053	23931.850
144.188	457.600	10777.110	6489.340	23972.695
144.876	459.600	10690.986	6481.665	23783.597
145.530	461.600	10573.505	6507.115	23636.402
146.183	463.500	10737.895	6596.476	23803.848
146.837	465.500	10664.647	6608.607	23708.121
147.490	467.500	10573.747	6640.248	23320.551
148.145	469.500	10590.992	6768.060	23239.038
148.797	471.500	10554.808	6775.889	23034.669
149.454	473.400	10517.962	6797.278	22746.163
150.107	475.400	10578.027	6866.095	22472.851
150.760	477.400	10541.881	6959.711	22310.385
151.414	479.400	10418.388	6895.437	21858.865
152.067	481.400	10526.661	6962.776	21530.086
152.739	483.400	10451.184	7079.942	21249.452
153.438	485.300	10412.236	7056.824	20790.837
154.091	487.300	10448.179	7134.143	20355.340
154.744	489.300	10435.073	7225.536	20036.789
155.401	491.300	10376.396	7173.251	19645.703
156.053	493.200	10448.421	7215.983	19122.541
156.705	495.200	10456.444	7333.089	18868.844
157.359	497.200	10276.033	7309.710	18382.515
158.012	499.200	10259.641	7358.155	18012.521
158.663	501.200	10327.666	7460.716	17772.694
159.317	503.100	10312.472	7518.126	17542.916
159.964	504.800	10285.483	7460.808	17062.853
160.613	506.800	10340.683	7617.864	16830.579
161.265	508.700	10266.187	7642.721	16661.248
161.933	510.700	10217.318	7641.232	16435.672
162.586	512.700	10176.778	7738.041	16236.678
163.240	514.700	10187.565	7800.297	16264.622
163.893	516.600	10119.820	7754.284	15998.825
164.548	518.600	10004.530	7784.841	15946.809
165.234	520.600	10169.238	7932.784	16022.693
165.885	522.600	9986.775	7881.016	15915.401
166.540	524.600	10146.401	7956.526	15881.178
167.190	526.500	10170.549	8075.615	15980.637
167.842	528.500	10125.513	8090.797	16008.275
168.523	530.500	10003.001	8077.753	15845.949
169.177	532.500	10038.905	8251.358	15927.896
169.866	534.700	9988.456	8172.894	15855.616
170.520	536.400	10002.861	8232.514	15784.050
171.170	538.400	10006.033	8374.469	15867.741
171.826	540.300	10004.734	8380.948	15844.867
172.480	542.300	9951.648	8388.167	15769.187
173.163	544.300	9999.321	8513.289	15839.352
173.815	546.300	9900.307	8499.278	15839.161
174.469	548.300	9915.209	8520.744	15724.125
175.124	550.300	9955.138	8620.488	15746.529
175.777	552.200	9879.916	8713.952	15819.458
176.430	554.200	9885.520	8659.431	15723.539
177.085	556.200	9922.380	8706.546	15700.092
177.738	558.200	9914.483	8827.679	15812.300
178.387	560.200	9733.001	8768.682	15638.778
179.028	562.200	9751.151	8877.791	15603.244
179.680	564.100	9793.016	8943.257	15728.392
180.324	566.100	9647.005	8946.507	15678.656
180.970	567.800	9636.332	8998.141	15534.072
181.620	569.700	9718.393	9064.440	15651.336
182.271	571.700	9698.919	9102.590	15779.045
182.924	573.700	9633.237	9049.536	15675.714
183.607	575.700	9736.147	9242.577	15808.390
184.251	577.600	9676.464	9205.261	15789.922
184.900	579.600	9622.678	9214.214	15729.589
185.552	581.600	9716.584	9253.883	15722.699
186.205	583.600	9757.570	9396.211	15977.810
186.876	585.500	9664.072	9333.286	15892.985
187.553	587.500	9746.655	9367.365	15898.207
188.233	589.500	9775.885	9489.026	15985.413
188.921	591.800	9701.733	9470.055	15885.611
189.570	593.800	9741.790	9493.708	15904.894
190.222	595.800	9797.868	9615.211	16002.760
190.870	597.400	9668.084	9540.121	15938.607
191.522	599.400	9642.114	9589.007	15852.330
192.173	601.400	9701.619	9708.097	16057.960
192.826	603.400	9600.950	9675.503	16105.595
193.476	605.300	9659.092	9707.102	15983.299
194.121	607.300	9669.383	9764.097	16025.763
194.771	609.300	9661.779	9809.643	16093.737
195.427	611.300	9582.915	9774.553	15960.081
196.079	613.200	9657.614	9863.721	16017.879
196.730	615.200	9629.136	9933.188	16132.201
197.383	617.200	9595.091	9858.309	16019.407
198.036	619.200	9609.853	9938.682	16080.759
198.685	620.800	9653.577	9973.546	16188.776
199.332	622.800	9642.420	10004.626	16250.102
199.981	624.800	9497.390	9990.586	16069.359
200.632	626.800	9576.318	10070.836	16133.258
201.283	628.800	9515.730	10104.316	16190.126
201.935	630.700	9578.738	10022.286	16156.375
202.587	632.700	9596.212	10117.007	16155.891
203.241	634.700	9586.545	10149.896	16274.696
203.888	636.700	9531.065	10107.825	16260.597
204.535	638.600	9545.521	10165.584	16115.758
205.184	640.600	9509.056	10146.261	16271.614
205.832	642.300	9478.591	10173.826	16282.784
206.483	644.300	9516.545	10195.037	16258.929
207.138	646.200	9562.117	10227.111	16292.884
207.788	648.200	9498.422	10253.348	16263.195
208.441	650.200	9436.433	10224.508	16197.195
209.111	652.200	9492.002	10279.970	16257.184
209.784	654.100	9468.911	10280.344	16363.036
210.436	656.100	9477.088	10235.727	16278.670
211.091	658.100	9450.596	10299.210	16280.339
211.736	660.000	9518.010	10280.881	16394.050
212.406	662.000	9477.929	10304.904	16344.874
