Mon, Jun 05, 2017	3:31 PM
 Notes: AA_0.02 L
 waiting time: 50.000
 time(ms)	 temp (K)	 MS1=61.297	 MS2=13.681	 MS3=17.903	 MS4=28.270	 MS5=29.393	 MS6=44.784	 MS7=61.297	 MS8=65.626
0.000	84.900	120.000
0.158	84.900	10.000
0.315	84.900	10.000
0.477	84.900	50.000
0.622	84.900	60.000
0.758	84.900	90.000
0.913	84.900	40.000
1.058	84.900	70.000
1.213	84.900	120.000
1.381	84.900	60.000
1.519	84.900	10.000
1.721	84.900	60.000
1.934	84.900	30.000
2.204	84.900	20.000
2.451	84.900	10.000
2.649	84.900	60.000
2.857	84.900	50.000
3.061	84.900	70.000
3.199	84.900	80.000
3.464	84.900	50.000
3.602	84.900	30.000
3.741	84.900	0.000
4.165	84.900	40.000
4.303	84.900	50.000
4.441	84.900	160.000
4.766	84.900	150.000
5.056	84.900	70.000
5.326	84.900	120.000
5.568	84.900	100.000
5.729	84.900	-10.000
5.886	84.900	40.000
6.024	84.900	110.000
6.200	84.900	20.000
6.338	84.900	60.000
6.496	84.900	50.000
6.635	84.900	60.000
6.792	84.900	150.000
6.947	84.900	60.000
7.107	84.900	120.000
7.259	84.900	100.000
7.397	84.900	230.000
7.549	84.900	70.000
7.719	84.900	60.000
7.858	84.900	80.000
7.997	84.900	200.000
8.134	84.900	60.000
8.286	84.900	150.000
8.423	84.900	110.000
8.562	84.900	100.000
8.703	84.900	30.000
8.862	84.900	50.000
8.999	84.900	190.000
9.157	84.900	130.000
9.296	84.900	50.000
9.443	84.900	130.000
9.602	84.900	60.000
9.741	84.900	120.000
9.896	84.900	100.000
10.033	84.900	130.000
10.170	84.900	50.000
10.307	84.900	90.000
10.464	84.900	240.000
10.603	84.900	80.000
10.768	84.900	190.000
10.906	84.900	40.000
11.085	84.900	130.000
11.239	84.900	150.000
11.387	84.900	80.000
11.538	84.900	90.000
11.681	84.900	60.000
11.879	84.900	120.000
12.019	84.900	80.000
12.179	84.900	130.000
12.326	84.900	40.000
12.484	84.900	260.000
12.626	84.900	170.000
12.789	84.900	20.000
12.926	84.900	100.000
13.103	84.900	230.000
13.241	85.000	160.000
13.390	84.900	60.000
13.547	84.900	200.000
13.709	84.900	220.000
13.847	84.900	70.000
13.985	84.900	140.000
14.123	84.900	120.000
14.290	84.900	110.000
14.427	84.900	120.000
14.591	84.900	140.000
14.731	84.900	100.000
14.869	84.900	210.000
15.008	84.900	110.000
15.166	84.900	220.000
15.305	84.900	140.000
15.455	84.900	190.000
15.627	84.900	300.000
15.767	84.900	90.000
15.906	84.900	180.000
16.058	84.900	100.000
16.195	84.900	190.000
16.355	84.900	60.000
16.494	84.900	70.000
16.633	84.900	130.000
16.771	84.900	100.000
16.910	84.900	220.000
17.061	84.900	160.000
17.198	84.900	310.000
17.361	85.000	110.000
17.499	84.900	80.000
17.637	84.900	170.000
17.786	84.900	240.000
17.925	84.900	110.000
18.064	84.900	130.000
18.229	85.000	190.000
18.367	85.000	150.000
18.504	85.000	140.000
18.642	85.000	290.000
18.805	85.000	270.000
18.961	85.000	110.000
19.100	85.000	50.000
19.238	85.000	280.000
19.391	85.000	140.000
19.559	84.900	150.000
19.727	84.900	90.000
19.882	85.000	130.000
20.064	84.900	260.000
20.216	84.900	180.000
20.360	84.900	110.000
20.516	84.900	130.000
20.716	84.900	130.000
20.881	85.000	160.000
21.035	85.000	200.000
21.201	85.000	210.000
21.339	84.900	280.000
21.503	85.000	80.000
21.641	85.000	160.000
21.780	85.000	160.000
21.940	85.000	110.000
22.090	85.000	110.000
22.230	85.000	170.000
22.390	84.900	240.000
22.538	84.900	30.000
22.678	85.000	170.000
22.816	85.000	220.000
22.956	85.000	100.000
23.094	85.000	330.000
23.233	85.000	310.000
23.384	85.000	210.000
23.525	85.000	340.000
23.663	85.000	290.000
23.819	85.000	260.000
23.957	85.000	140.000
24.096	85.000	210.000
24.234	85.000	240.000
24.395	84.900	130.000
24.534	84.900	350.000
24.674	85.000	220.000
24.812	85.000	120.000
24.951	85.000	160.000
25.091	85.000	420.000
25.230	85.000	130.000
25.369	85.000	220.000
25.507	85.000	160.000
25.647	85.100	160.000
25.785	85.000	100.000
25.924	84.900	330.000
26.092	85.000	160.000
26.232	85.000	320.000
26.370	85.000	150.000
26.508	85.000	310.000
26.647	85.000	180.000
26.829	85.000	90.000
26.967	84.900	210.000
27.106	84.900	250.000
27.256	85.000	130.000
27.413	84.900	340.000
27.571	84.900	290.000
27.722	84.900	300.000
27.907	84.900	230.000
28.047	85.000	170.000
28.210	85.000	200.000
28.350	85.000	160.000
28.490	85.000	370.000
28.629	85.000	300.000
28.767	85.100	250.000
28.923	85.100	230.000
29.062	85.100	430.000
29.201	85.200	200.000
29.341	85.200	430.000
29.480	85.200	370.000
29.619	85.300	250.000
29.758	85.400	320.000
29.897	85.400	250.000
30.055	85.400	390.000
30.272	85.500	320.000
30.411	85.700	330.000
30.551	85.800	360.000
30.715	85.900	410.000
30.867	86.000	300.000
31.006	86.100	250.000
31.159	86.200	630.000
31.298	86.300	230.000
31.457	86.500	420.000
31.596	86.600	360.000
31.752	86.900	420.000
31.898	87.000	190.000
32.063	87.100	180.000
32.214	87.400	290.000
32.355	87.500	300.000
32.515	87.800	220.000
32.706	88.000	390.000
32.846	88.300	170.000
32.985	88.500	250.000
33.142	88.700	230.000
33.303	89.100	580.000
33.459	89.300	220.000
33.600	89.700	400.000
33.759	89.900	450.000
33.916	90.200	380.000
34.109	90.600	340.000
34.248	90.800	320.000
34.387	91.000	240.000
34.526	91.600	260.000
34.665	91.800	510.000
34.804	92.100	270.000
34.943	92.600	220.000
35.084	92.900	520.000
35.236	93.200	440.000
35.375	93.800	330.000
35.524	94.100	390.000
35.663	94.400	580.000
35.802	95.000	340.000
35.943	95.000	450.000
36.082	95.600	590.000
36.221	95.900	450.000
36.360	96.300	370.000
36.500	96.900	570.000
36.640	97.200	200.000
36.779	97.600	380.000
36.918	98.200	160.000
37.057	98.500	520.000
37.217	98.800	310.000
37.356	99.500	370.000
37.525	99.800	330.000
37.665	100.100	300.000
37.805	100.800	260.000
37.956	101.100	410.000
38.106	101.500	200.000
38.269	102.100	240.000
38.427	102.400	390.000
38.576	102.700	440.000
38.715	103.300	380.000
38.854	103.600	310.000
38.993	104.200	400.000
39.132	104.500	550.000
39.297	104.900	610.000
39.436	105.500	420.000
39.576	105.800	430.000
39.773	106.500	600.000
39.931	106.800	420.000
40.071	107.100	580.000
40.230	107.700	530.000
40.368	108.000	420.000
40.522	108.300	450.000
40.661	108.900	330.000
40.800	109.200	570.000
40.939	109.500	190.000
41.092	110.100	560.000
41.231	110.400	440.000
41.371	110.700	390.000
41.510	111.000	550.000
41.649	111.600	310.000
41.788	111.900	570.000
41.926	112.300	370.000
42.073	112.600	290.000
42.213	113.200	410.000
42.352	113.500	570.000
42.492	113.800	540.000
42.633	114.100	290.000
42.773	114.700	530.000
42.911	115.000	480.000
43.051	115.300	480.000
43.190	115.900	590.000
43.330	116.200	510.000
43.469	116.500	390.000
43.608	116.800	480.000
43.748	117.500	500.000
43.887	117.800	610.000
44.027	118.100	660.000
44.189	118.700	720.000
44.340	119.000	610.000
44.479	119.300	520.000
44.634	119.300	550.000
44.774	120.200	410.000
44.914	120.600	590.000
45.055	121.100	530.000
45.195	121.500	530.000
45.334	121.800	540.000
45.474	122.100	220.000
45.613	122.800	360.000
45.754	123.000	440.000
45.893	123.400	550.000
46.032	123.700	480.000
46.173	124.300	540.000
46.313	124.600	670.000
46.452	124.900	500.000
46.593	125.500	300.000
46.753	125.800	460.000
46.893	126.100	610.000
47.032	126.800	570.000
47.172	127.100	430.000
47.327	127.400	370.000
47.467	127.700	430.000
47.606	128.300	760.000
47.744	128.600	510.000
47.882	128.900	340.000
48.066	129.600	490.000
48.206	129.900	550.000
48.358	130.600	720.000
48.507	130.900	620.000
48.647	131.200	380.000
48.785	131.200	620.000
48.923	132.100	540.000
49.062	132.500	450.000
49.201	132.800	690.000
49.339	133.400	670.000
49.477	133.700	550.000
49.616	134.000	410.000
49.758	134.300	700.000
49.915	134.900	500.000
50.075	135.300	590.000
50.223	135.600	630.000
50.373	136.200	390.000
50.511	136.600	540.000
50.649	136.900	300.000
50.787	137.500	550.000
50.927	137.900	570.000
51.065	138.200	600.000
51.203	138.800	440.000
51.342	139.100	510.000
51.481	139.400	500.000
51.620	139.800	310.000
51.760	140.400	530.000
51.911	140.700	690.000
52.049	141.100	590.000
52.187	141.700	380.000
52.325	141.700	720.000
52.463	142.300	500.000
52.601	142.600	390.000
52.739	143.300	550.000
52.878	143.600	620.000
53.017	143.900	480.000
53.156	144.200	320.000
53.294	144.900	750.000
53.434	145.200	630.000
53.572	145.500	330.000
53.731	146.100	740.000
53.882	146.500	540.000
54.020	146.800	560.000
54.160	147.100	500.000
54.299	147.800	470.000
54.439	148.100	460.000
54.591	148.400	300.000
54.731	149.000	560.000
54.882	149.400	380.000
55.021	149.700	770.000
55.183	150.000	530.000
55.322	150.600	710.000
55.461	150.900	700.000
55.620	151.600	670.000
55.760	151.900	860.000
55.898	152.200	880.000
56.036	152.900	720.000
56.174	153.200	450.000
56.335	153.500	670.000
56.473	153.900	650.000
56.628	154.500	600.000
56.791	154.800	670.000
56.931	155.200	610.000
57.071	155.800	430.000
57.210	156.100	650.000
57.391	156.800	600.000
57.543	157.100	820.000
57.682	157.400	510.000
57.822	158.000	490.000
57.960	158.400	540.000
58.101	158.700	840.000
58.282	159.300	770.000
58.421	159.600	800.000
58.561	159.900	860.000
58.699	160.200	800.000
58.840	160.900	550.000
58.978	160.900	590.000
59.130	161.900	750.000
59.268	162.200	810.000
59.407	162.500	870.000
59.546	162.800	850.000
59.709	163.500	800.000
59.848	163.800	800.000
59.998	164.400	610.000
60.137	164.800	630.000
60.276	165.100	730.000
60.415	165.400	780.000
60.554	166.100	970.000
60.692	166.400	790.000
60.831	166.700	860.000
60.971	167.000	780.000
61.128	167.600	860.000
61.268	168.000	950.000
61.425	168.300	790.000
61.564	169.000	840.000
61.703	169.300	910.000
61.842	169.700	790.000
61.980	170.400	870.000
62.118	170.400	700.000
62.258	171.200	880.000
62.397	171.600	860.000
62.536	172.000	700.000
62.675	172.700	760.000
62.812	173.100	820.000
62.952	173.400	900.000
63.092	174.200	580.000
63.230	174.600	840.000
63.369	175.000	930.000
63.509	175.300	750.000
63.649	176.100	770.000
63.830	176.500	530.000
63.969	177.200	1030.000
64.132	177.600	950.000
64.271	177.900	880.000
64.431	178.600	930.000
64.570	179.000	920.000
64.709	179.400	870.000
64.848	180.100	800.000
64.986	180.400	990.000
65.125	180.800	900.000
65.264	181.100	1010.000
65.416	181.800	1010.000
65.554	182.200	960.000
65.693	182.500	890.000
65.832	182.900	1020.000
65.971	183.500	910.000
66.110	183.800	1000.000
66.249	184.200	1000.000
66.388	184.800	990.000
66.528	185.200	980.000
66.667	185.500	1070.000
66.807	185.800	930.000
66.946	186.200	1150.000
67.103	186.800	1070.000
67.275	187.200	1020.000
67.423	187.800	960.000
67.562	188.100	1040.000
67.702	188.500	1060.000
67.841	189.100	1060.000
67.980	189.400	1010.000
68.119	189.700	1060.000
68.258	190.400	1250.000
68.399	190.700	1230.000
68.539	191.000	1180.000
68.678	191.300	1170.000
68.817	192.000	1130.000
68.956	192.300	1290.000
69.095	192.700	1210.000
69.234	193.300	1320.000
69.372	193.600	1320.000
69.512	193.900	1490.000
69.651	194.300	1490.000
69.790	194.600	1630.000
69.929	195.200	1700.000
70.068	195.600	1790.000
70.208	195.900	1800.000
70.347	196.500	1760.000
70.499	196.800	1820.000
70.638	197.100	1950.000
70.777	197.800	2060.000
70.917	198.100	2060.000
71.056	198.400	2160.000
71.218	198.800	2140.000
71.356	199.400	2300.000
71.496	199.700	2550.000
71.635	200.100	2330.000
71.775	200.400	2740.000
71.915	201.000	2880.000
72.055	201.300	3160.000
72.194	201.600	3340.000
72.333	202.300	3550.000
72.488	202.600	3870.000
72.626	202.900	3990.000
72.765	203.300	4210.000
72.905	203.900	4160.000
73.047	204.200	4340.000
73.185	204.600	4250.000
73.324	204.900	3620.000
73.464	205.500	3100.000
73.603	205.800	2190.000
73.765	206.500	1900.000
73.905	206.800	1470.000
74.044	207.100	1650.000
74.184	207.800	1520.000
74.342	208.100	1410.000
74.481	208.400	1100.000
74.621	208.800	1160.000
74.761	209.400	1210.000
74.900	209.700	1250.000
75.041	210.100	1300.000
75.208	210.700	1160.000
75.354	211.000	1280.000
75.519	211.400	1130.000
75.658	212.000	1370.000
75.798	212.300	1070.000
75.937	212.600	1110.000
76.076	213.000	1180.000
76.216	213.600	1100.000
76.355	213.900	1060.000
76.494	214.300	1130.000
76.634	214.900	1010.000
76.772	215.200	1030.000
76.912	215.500	1200.000
77.051	215.800	1120.000
77.191	216.500	1070.000
77.332	216.800	1090.000
77.473	217.100	1200.000
77.612	217.800	1070.000
77.751	218.100	1160.000
77.892	218.400	1200.000
78.031	218.700	1050.000
78.195	219.400	1050.000
78.348	219.700	1050.000
78.488	220.000	1110.000
78.627	220.700	990.000
78.766	221.000	1070.000
78.906	221.300	1240.000
79.046	221.700	1190.000
79.185	222.300	1080.000
79.324	222.600	1150.000
79.464	223.000	1060.000
79.604	223.600	1060.000
79.745	223.900	1080.000
79.884	224.200	1040.000
80.025	224.600	1100.000
80.165	224.900	1120.000
80.305	225.500	1070.000
80.444	225.900	1180.000
80.584	226.500	1060.000
80.723	226.800	1040.000
80.862	227.100	1120.000
81.003	227.500	1240.000
81.143	227.800	1070.000
81.306	228.400	1020.000
81.446	229.100	1160.000
81.585	229.400	1080.000
81.736	229.700	1090.000
81.876	230.100	1210.000
82.015	230.700	1280.000
82.156	230.700	1030.000
82.318	231.400	1210.000
82.457	232.000	990.000
82.597	232.300	1110.000
82.759	232.600	1000.000
82.898	233.000	1120.000
83.038	233.600	1080.000
83.177	234.000	1080.000
83.316	234.300	1280.000
83.455	234.900	1120.000
83.595	235.300	1050.000
83.735	235.600	1070.000
83.885	236.200	1040.000
84.025	236.500	1100.000
84.183	236.900	1150.000
84.324	237.500	1090.000
84.474	237.800	1080.000
84.613	238.100	1040.000
84.752	238.800	1070.000
84.892	239.100	1160.000
85.033	239.400	1140.000
85.192	240.000	1020.000
85.332	240.400	1070.000
85.471	240.700	1120.000
85.610	241.000	1360.000
85.749	241.600	1170.000
85.889	242.000	1070.000
86.045	242.300	1030.000
86.184	242.600	1110.000
86.323	243.300	1040.000
86.462	243.600	1240.000
86.602	243.900	1060.000
86.742	244.500	1070.000
86.882	244.900	1120.000
87.022	245.200	1030.000
87.160	245.500	1090.000
87.299	246.200	1070.000
87.438	246.500	1080.000
87.599	246.800	1100.000
87.760	247.500	1060.000
87.900	247.800	1010.000
88.040	248.100	1000.000
88.179	248.800	1070.000
88.317	249.100	1140.000
88.465	249.400	1040.000
88.605	249.800	1150.000
88.744	250.100	1030.000
88.883	250.700	1150.000
89.021	251.100	1110.000
89.162	251.800	1070.000
89.302	252.100	1120.000
89.441	252.400	1100.000
89.580	252.700	1040.000
89.719	253.400	1070.000
89.858	253.700	1140.000
89.997	254.000	1060.000
90.135	254.700	1020.000
90.275	255.000	1050.000
90.414	255.300	1120.000
90.553	255.700	1260.000
90.692	256.000	1120.000
90.842	256.700	1020.000
90.981	257.000	960.000
91.121	257.300	970.000
91.259	258.000	1040.000
91.398	258.300	1120.000
91.538	258.600	1140.000
91.677	258.900	980.000
91.816	259.600	960.000
91.979	259.900	1060.000
92.117	260.200	1020.000
92.257	260.900	1110.000
92.396	261.200	980.000
92.536	261.500	1090.000
92.676	262.200	1070.000
92.816	262.500	1100.000
92.954	262.800	1170.000
93.094	263.200	1060.000
93.232	263.800	1020.000
93.371	264.200	1080.000
93.510	264.500	1060.000
93.649	264.800	1020.000
93.788	265.500	920.000
93.927	265.800	910.000
94.066	266.100	1100.000
94.206	266.500	1090.000
94.346	267.100	1020.000
94.486	267.400	1010.000
94.625	267.700	1030.000
94.780	268.400	1060.000
94.919	268.700	1020.000
95.069	269.000	1020.000
95.208	269.700	1060.000
95.347	270.000	1070.000
95.486	270.300	1040.000
95.626	270.700	1000.000
95.766	271.300	1020.000
95.906	271.600	1030.000
96.064	272.000	1090.000
96.202	272.600	1030.000
96.341	272.900	1020.000
96.481	273.300	1080.000
96.621	273.600	1000.000
96.760	274.200	1100.000
96.898	274.500	950.000
97.038	274.900	910.000
97.178	275.500	1050.000
97.317	275.800	960.000
97.456	276.200	1070.000
97.596	276.200	1030.000
97.735	276.800	940.000
97.874	277.400	1020.000
98.013	277.800	1070.000
98.152	278.100	1070.000
98.291	278.800	1000.000
98.430	279.100	1000.000
98.570	279.400	940.000
98.709	279.700	960.000
98.848	280.300	920.000
98.987	280.700	1100.000
99.125	281.000	990.000
99.263	281.300	980.000
99.403	282.000	930.000
99.590	282.300	1040.000
99.729	283.000	930.000
99.870	283.300	960.000
100.008	283.600	980.000
100.169	284.300	960.000
100.318	284.600	1060.000
100.458	284.900	960.000
100.596	285.600	990.000
100.736	285.900	1060.000
100.875	286.200	1030.000
101.015	286.500	960.000
101.154	287.200	1010.000
101.293	287.500	840.000
101.433	287.900	950.000
101.571	288.200	1050.000
101.710	288.900	1010.000
101.850	289.200	980.000
101.990	289.500	1030.000
102.128	289.800	1050.000
102.268	290.400	960.000
102.408	290.800	850.000
102.549	291.100	1060.000
102.688	291.800	990.000
102.827	292.100	1040.000
102.967	292.400	970.000
103.123	292.700	920.000
103.263	293.400	910.000
103.403	293.700	1010.000
103.541	294.000	1000.000
103.679	294.400	1030.000
103.818	294.700	970.000
103.957	295.300	850.000
104.096	295.700	960.000
104.236	296.300	1140.000
104.374	296.600	960.000
104.513	297.000	1100.000
104.653	297.300	1020.000
104.793	297.900	910.000
104.932	298.300	1030.000
105.073	298.600	950.000
105.227	299.200	830.000
105.367	299.600	1050.000
105.506	299.900	1050.000
105.645	300.200	1020.000
105.784	300.800	1050.000
105.924	301.200	1000.000
106.063	301.500	760.000
106.201	302.200	960.000
106.339	302.500	900.000
106.478	302.800	980.000
106.619	303.100	910.000
106.759	303.800	800.000
106.899	304.100	870.000
107.039	304.400	980.000
107.178	304.700	870.000
107.336	305.400	890.000
107.475	305.700	1030.000
107.615	306.100	950.000
107.755	306.700	860.000
107.919	307.100	1010.000
108.080	307.400	830.000
108.218	308.100	910.000
108.358	308.400	1040.000
108.497	308.700	1020.000
108.637	309.400	910.000
108.776	309.700	1050.000
108.916	310.000	920.000
109.056	310.400	930.000
109.195	311.000	860.000
109.334	311.300	1030.000
109.474	311.700	780.000
109.614	312.000	860.000
109.754	312.600	930.000
109.894	313.000	1020.000
110.035	313.300	1030.000
110.174	314.000	1060.000
110.315	314.300	820.000
110.453	314.600	990.000
110.593	315.000	910.000
110.732	315.600	950.000
110.872	315.900	890.000
111.010	316.300	900.000
111.149	316.900	900.000
111.311	317.200	990.000
111.451	317.600	900.000
111.589	318.200	880.000
111.728	318.600	790.000
111.868	318.900	990.000
112.008	319.200	930.000
112.148	319.900	940.000
112.288	319.900	980.000
112.452	320.500	1050.000
112.590	321.200	1010.000
112.729	321.500	830.000
112.869	321.800	900.000
113.009	322.100	1050.000
113.166	322.800	890.000
113.305	323.100	990.000
113.445	323.500	1000.000
113.585	323.800	980.000
113.725	324.500	950.000
113.865	324.800	1030.000
114.006	325.100	880.000
114.145	325.400	960.000
114.297	325.800	990.000
114.438	326.400	920.000
114.609	327.100	840.000
114.749	327.400	1010.000
114.889	327.700	1060.000
115.029	328.400	1050.000
115.179	328.700	770.000
115.319	329.100	820.000
115.459	329.700	940.000
115.600	330.100	1010.000
115.739	330.400	870.000
115.879	330.700	1010.000
116.018	331.400	930.000
116.157	331.700	960.000
116.297	332.100	960.000
116.436	332.400	940.000
116.576	333.000	1050.000
116.717	333.400	1010.000
116.856	333.700	950.000
116.995	334.400	940.000
117.134	334.700	830.000
117.273	335.000	850.000
117.413	335.300	970.000
117.552	336.000	940.000
117.692	336.400	940.000
117.832	336.700	940.000
117.972	337.000	980.000
118.111	337.700	850.000
118.251	338.000	960.000
118.391	338.300	980.000
118.531	338.600	960.000
118.671	339.000	980.000
118.811	339.600	980.000
118.951	339.900	1040.000
119.091	340.600	980.000
119.231	340.900	950.000
119.371	341.300	830.000
119.511	341.600	950.000
119.651	342.200	1010.000
119.791	342.500	990.000
119.931	342.900	910.000
120.071	343.200	1000.000
120.211	343.800	970.000
120.351	344.100	970.000
120.491	344.100	970.000
120.630	345.100	980.000
120.769	345.400	1020.000
120.909	345.700	940.000
121.049	346.100	950.000
121.189	346.700	950.000
121.328	347.000	980.000
121.468	347.400	1050.000
121.607	348.000	1110.000
121.747	348.300	1090.000
121.886	348.700	840.000
122.027	349.000	980.000
122.191	349.600	910.000
122.330	350.000	990.000
122.470	350.300	890.000
122.609	350.900	980.000
122.748	351.300	950.000
122.887	351.600	930.000
123.039	352.300	710.000
123.179	352.600	1040.000
123.319	352.900	970.000
123.459	353.200	1020.000
123.598	353.900	910.000
123.739	354.200	990.000
123.889	354.500	940.000
124.028	355.200	970.000
124.188	355.500	910.000
124.337	355.800	890.000
124.477	356.500	980.000
124.616	356.900	940.000
124.755	357.200	860.000
124.895	357.500	900.000
125.037	358.200	780.000
125.189	358.500	930.000
125.345	359.200	900.000
125.500	359.500	960.000
125.639	359.800	940.000
125.794	360.500	890.000
125.943	360.800	860.000
126.083	361.100	1030.000
126.223	361.400	1010.000
126.388	362.100	920.000
126.545	362.700	970.000
126.700	363.100	1010.000
126.857	363.400	990.000
127.016	364.100	910.000
127.171	364.400	940.000
127.335	365.000	1030.000
127.484	365.400	1010.000
127.637	365.700	1010.000
127.777	366.000	890.000
127.942	366.700	800.000
128.081	367.000	1020.000
128.232	367.700	800.000
128.386	368.000	890.000
128.546	368.300	910.000
128.685	369.000	1020.000
128.845	369.300	900.000
129.006	369.900	990.000
129.160	370.300	930.000
129.320	370.900	900.000
129.459	371.300	990.000
129.613	371.600	990.000
129.767	372.200	970.000
129.911	372.600	940.000
130.067	372.900	990.000
130.231	373.500	880.000
130.370	373.900	980.000
130.522	374.500	1040.000
130.669	374.900	1040.000
130.809	375.200	990.000
130.956	375.800	940.000
131.109	376.200	910.000
131.263	376.500	980.000
131.456	377.100	1010.000
131.607	377.500	1020.000
131.745	378.100	840.000
131.884	378.500	1030.000
132.025	378.800	980.000
132.166	379.400	890.000
132.305	379.800	920.000
132.444	380.100	1030.000
132.583	380.400	950.000
132.721	380.700	930.000
132.860	381.400	1080.000
132.999	381.700	900.000
133.153	382.000	1060.000
133.291	382.700	1020.000
133.430	383.000	1030.000
133.570	383.300	1000.000
133.708	383.700	1060.000
133.847	384.300	1000.000
133.986	384.600	990.000
134.125	385.000	910.000
134.265	385.600	900.000
134.406	386.000	1000.000
134.545	386.300	1000.000
134.686	386.900	1040.000
134.827	387.200	1070.000
134.967	387.600	1050.000
135.109	387.900	950.000
135.248	388.600	920.000
135.389	388.900	1040.000
135.528	389.200	990.000
135.667	389.500	1010.000
135.809	389.900	1000.000
135.948	390.500	1070.000
136.087	390.800	970.000
136.226	391.200	1000.000
136.365	391.800	1000.000
136.504	392.200	880.000
136.644	392.500	1090.000
136.782	392.800	980.000
136.921	393.400	980.000
137.061	393.800	1020.000
137.199	394.100	1010.000
137.357	394.800	960.000
137.497	395.100	990.000
137.638	395.400	1040.000
137.776	395.800	980.000
137.916	396.100	1010.000
138.054	396.700	990.000
138.194	397.000	920.000
138.333	397.400	1000.000
138.473	398.000	1090.000
138.613	398.300	960.000
138.753	398.700	1180.000
138.891	399.300	1020.000
139.033	399.600	1100.000
139.173	400.000	860.000
139.332	400.300	960.000
139.472	400.900	1110.000
139.610	401.300	920.000
139.749	401.900	1050.000
139.890	402.200	910.000
140.029	402.600	1000.000
140.169	402.900	1080.000
140.308	403.600	1010.000
140.447	403.900	1040.000
140.588	404.200	1010.000
140.751	404.900	900.000
140.903	405.200	950.000
141.046	405.500	970.000
141.187	406.200	990.000
141.339	406.500	1000.000
141.487	406.800	970.000
141.637	407.200	1010.000
141.790	407.800	950.000
141.941	408.100	980.000
142.091	408.800	1020.000
142.240	408.800	920.000
142.386	409.400	960.000
142.546	410.100	1020.000
142.695	410.400	1030.000
142.834	410.700	940.000
142.995	411.400	950.000
143.145	411.700	1000.000
143.301	412.000	1000.000
143.457	412.700	1010.000
143.606	413.400	950.000
143.762	413.700	1010.000
143.904	414.000	1040.000
144.060	414.600	1000.000
144.200	414.900	1050.000
144.349	415.300	970.000
144.507	415.900	1020.000
144.663	416.300	1020.000
144.827	416.900	1090.000
144.978	417.300	1130.000
145.134	417.600	920.000
145.286	418.200	1010.000
145.447	418.500	940.000
145.603	419.200	1030.000
145.742	419.500	1010.000
145.894	419.800	940.000
146.053	420.100	1030.000
146.194	420.800	1130.000
146.352	421.500	1010.000
146.504	421.800	1070.000
146.644	422.100	1080.000
146.785	422.400	1100.000
146.923	423.100	960.000
147.063	423.400	980.000
147.204	423.700	1050.000
147.344	424.400	1040.000
147.485	424.700	1080.000
147.624	425.000	1030.000
147.781	425.400	1020.000
147.920	426.000	1080.000
148.061	426.300	970.000
148.199	426.700	1090.000
148.339	427.000	1070.000
148.478	427.700	1090.000
148.617	428.000	1110.000
148.755	428.300	950.000
148.895	428.900	1020.000
149.059	428.900	1070.000
149.197	429.600	1070.000
149.337	430.300	1080.000
149.477	430.600	1040.000
149.616	430.900	970.000
149.755	431.200	1030.000
149.895	431.900	1050.000
150.036	432.200	1030.000
150.234	432.800	1000.000
150.373	433.200	1050.000
150.514	433.500	1020.000
150.653	434.100	1050.000
150.795	434.400	1070.000
150.935	434.800	1050.000
151.074	435.100	1040.000
151.214	435.700	1030.000
151.354	436.100	1000.000
151.495	436.400	1000.000
151.636	436.700	980.000
151.796	437.400	1040.000
151.935	437.700	1140.000
152.076	438.000	1030.000
152.215	438.600	1020.000
152.356	438.900	940.000
152.495	439.300	1010.000
152.635	439.900	1030.000
152.774	440.300	1060.000
152.914	440.600	1000.000
153.054	440.900	1020.000
153.194	441.600	990.000
153.335	441.900	1020.000
153.474	442.200	970.000
153.613	442.600	990.000
153.753	443.200	1090.000
153.893	443.600	1000.000
154.033	443.900	990.000
154.172	444.500	1000.000
154.313	444.800	1040.000
154.453	445.200	1040.000
154.593	445.500	970.000
154.733	446.200	970.000
154.874	446.500	1040.000
155.014	446.800	980.000
155.155	447.500	960.000
155.294	447.500	1100.000
155.434	448.200	980.000
155.574	448.500	1130.000
155.715	449.200	940.000
155.855	449.500	1030.000
155.994	449.800	1070.000
156.134	450.200	940.000
156.274	450.800	1040.000
156.413	451.100	1010.000
156.554	451.500	930.000
156.693	452.100	1000.000
156.833	452.400	1030.000
156.973	452.800	1020.000
157.113	453.100	960.000
157.253	453.800	980.000
157.394	454.100	980.000
157.533	454.400	1050.000
157.673	454.700	1040.000
157.813	455.400	900.000
157.953	455.700	1060.000
158.093	456.000	980.000
158.234	456.400	1040.000
158.373	457.000	1200.000
158.513	457.300	1010.000
158.655	457.700	1100.000
158.794	458.300	1070.000
158.935	458.700	980.000
159.075	459.000	1060.000
159.216	459.300	1130.000
159.373	459.700	940.000
159.511	460.300	1130.000
159.651	460.600	1090.000
159.791	461.000	1050.000
159.931	461.600	1050.000
160.071	461.900	970.000
160.211	462.200	1080.000
160.351	462.900	980.000
160.491	463.200	1100.000
160.631	463.500	1040.000
160.771	463.800	1130.000
160.912	464.500	1020.000
161.053	464.800	1120.000
161.192	465.100	1080.000
161.333	465.800	1080.000
161.472	465.800	1070.000
161.613	466.400	1070.000
161.753	466.700	1080.000
161.894	467.400	1040.000
162.033	467.700	1050.000
162.173	468.000	1020.000
162.337	468.700	1010.000
162.476	469.000	1030.000
162.616	469.400	1070.000
162.756	470.000	1070.000
162.897	470.300	1130.000
163.060	470.700	990.000
163.199	471.000	1110.000
163.341	471.600	1090.000
163.480	471.900	1090.000
163.620	472.600	1060.000
163.761	472.900	990.000
163.900	473.200	1020.000
164.040	473.600	1070.000
164.180	473.900	1040.000
164.321	474.500	1140.000
164.477	474.900	1000.000
164.616	475.200	1110.000
164.756	475.900	1020.000
164.896	476.200	1050.000
165.036	476.500	1180.000
165.176	476.800	1040.000
165.317	477.500	1060.000
165.456	477.800	990.000
165.607	478.500	1090.000
165.746	478.800	1010.000
165.884	479.100	1040.000
166.024	479.400	1050.000
166.163	480.100	1080.000
166.302	480.400	1030.000
166.442	480.700	1090.000
166.582	481.100	1030.000
166.720	481.400	1080.000
166.885	482.000	1050.000
167.024	482.300	1100.000
167.164	482.900	1090.000
167.303	483.300	1110.000
167.443	483.600	1080.000
167.582	483.900	1040.000
167.720	484.500	1020.000
167.860	484.800	1050.000
168.000	485.200	1040.000
168.150	485.500	1110.000
168.289	486.100	1010.000
168.429	486.500	1010.000
168.569	486.800	1010.000
168.709	487.400	1030.000
168.848	487.700	1050.000
168.989	488.000	1130.000
169.129	488.700	1100.000
169.268	488.700	1060.000
169.407	489.300	1050.000
169.548	489.700	1010.000
169.687	490.000	980.000
169.828	490.600	1020.000
169.967	490.900	1090.000
170.107	491.300	1090.000
170.247	491.600	1100.000
170.385	492.200	1140.000
170.525	492.600	1040.000
170.665	492.900	1120.000
170.804	493.500	1070.000
170.943	493.900	1070.000
171.083	494.200	930.000
171.222	494.500	1000.000
171.361	495.200	990.000
171.500	495.500	1110.000
171.658	496.200	1010.000
171.796	496.500	1170.000
171.935	496.800	1040.000
172.074	497.200	950.000
172.213	497.900	1080.000
172.353	498.200	1070.000
172.492	498.500	1090.000
172.631	498.800	1040.000
172.771	499.500	990.000
172.911	499.800	990.000
173.049	500.200	1090.000
173.188	500.900	1020.000
173.329	501.200	1100.000
173.468	501.500	1030.000
173.607	501.800	1080.000
173.747	502.500	1160.000
173.886	502.500	1050.000
174.025	503.200	1080.000
174.163	503.500	1190.000
174.303	504.100	1050.000
174.444	504.400	1080.000
174.591	504.800	1030.000
174.731	505.100	990.000
174.871	505.800	1040.000
175.010	506.100	1060.000
175.150	506.400	1060.000
175.290	507.100	980.000
175.429	507.400	1050.000
175.569	507.700	1130.000
175.707	508.000	1070.000
175.848	508.700	1180.000
175.986	509.000	990.000
176.125	509.300	920.000
176.266	509.700	1060.000
176.406	510.300	1040.000
176.544	510.600	1080.000
176.702	510.900	1080.000
176.841	511.600	1040.000
176.980	511.900	1000.000
177.120	512.200	1010.000
177.260	512.500	1170.000
177.400	513.200	1000.000
177.555	513.500	1040.000
177.693	513.800	1090.000
177.832	514.500	1050.000
177.972	514.800	1150.000
178.112	515.100	1060.000
178.250	515.700	1050.000
178.419	516.100	1020.000
178.559	516.400	1100.000
178.699	517.000	1110.000
178.840	517.300	1090.000
178.980	517.700	1060.000
179.119	518.000	1130.000
179.259	518.600	1100.000
179.433	519.000	1080.000
179.572	519.300	1080.000
179.712	519.900	1070.000
179.851	520.200	1040.000
179.991	520.600	1090.000
180.130	521.200	1100.000
180.270	521.600	990.000
180.409	521.900	940.000
180.549	522.200	1070.000
180.689	522.900	1050.000
180.829	523.200	1110.000
180.967	523.500	1050.000
181.107	523.800	1000.000
181.247	524.200	1070.000
181.387	524.900	1040.000
181.525	525.200	1060.000
181.666	525.500	1130.000
181.806	526.200	1050.000
181.945	526.500	1110.000
182.084	526.900	1090.000
182.223	527.200	1060.000
182.364	527.900	1050.000
182.504	528.200	1090.000
182.643	528.500	1210.000
182.782	528.900	1010.000
182.922	529.500	1130.000
183.062	529.900	1090.000
183.200	530.500	1130.000
183.340	530.800	1060.000
183.479	531.100	970.000
183.620	531.500	1090.000
183.759	532.100	1050.000
183.899	532.500	990.000
184.040	532.500	1060.000
184.180	533.100	1130.000
184.320	533.800	1170.000
184.459	534.100	1100.000
184.599	534.400	970.000
184.738	535.100	1060.000
184.878	535.400	1070.000
185.019	535.700	1060.000
185.159	536.000	1070.000
185.299	536.700	1060.000
185.438	537.000	1070.000
185.578	537.300	1100.000
185.718	537.700	1050.000
185.858	538.300	1120.000
185.998	538.600	1040.000
186.139	538.900	1000.000
186.280	539.300	1120.000
186.418	539.900	1010.000
186.557	540.200	1090.000
186.697	540.500	1210.000
186.848	541.200	1150.000
186.987	541.500	1080.000
187.127	541.900	1050.000
187.267	542.200	1070.000
187.408	542.800	1070.000
187.547	543.200	1110.000
187.687	543.500	1070.000
187.827	543.800	1080.000
187.967	544.100	1040.000
188.114	544.800	1140.000
188.255	545.100	1180.000
188.394	545.800	1140.000
188.534	546.100	1060.000
188.674	546.400	1210.000
188.814	546.700	1050.000
188.954	547.400	1030.000
189.093	547.700	1040.000
189.232	548.100	1060.000
189.373	548.700	1070.000
189.512	549.100	1110.000
189.652	549.400	1210.000
189.792	549.700	1120.000
189.932	550.300	1130.000
190.073	550.700	1170.000
190.212	550.700	1130.000
190.351	551.300	1150.000
190.491	552.000	1170.000
190.630	552.300	1030.000
190.770	552.600	1060.000
190.910	553.300	1170.000
191.051	553.600	1170.000
191.190	553.900	1050.000
191.330	554.200	1010.000
191.475	554.900	1200.000
191.615	555.200	1080.000
191.756	555.500	1040.000
191.894	556.200	1110.000
192.032	556.500	1150.000
192.173	556.800	1110.000
192.312	557.100	1050.000
192.451	557.800	1160.000
192.592	558.100	1140.000
192.732	558.500	1100.000
192.871	558.800	1070.000
193.010	559.400	1030.000
193.151	559.800	1110.000
193.291	560.100	1260.000
193.431	560.400	1090.000
193.570	561.100	1220.000
193.710	561.400	1150.000
193.849	561.700	1110.000
193.990	562.400	1090.000
194.130	562.700	1040.000
194.294	563.000	1090.000
194.434	563.300	1090.000
194.573	564.000	1130.000
194.713	564.300	1150.000
194.854	564.600	1190.000
194.994	565.300	1180.000
195.134	565.600	1070.000
195.274	565.900	1230.000
195.414	566.200	1130.000
195.554	566.900	1050.000
195.694	567.200	1080.000
195.834	567.500	1130.000
195.975	568.200	1040.000
196.114	568.500	1070.000
196.255	568.900	1150.000
196.396	569.200	1090.000
196.536	569.800	1120.000
196.675	570.200	1110.000
196.815	570.500	1120.000
196.956	571.100	1050.000
197.096	571.500	1060.000
197.237	571.800	1120.000
197.377	572.100	1090.000
197.517	572.800	1180.000
197.656	573.100	1100.000
197.797	573.400	1170.000
197.937	573.800	1090.000
198.076	574.400	1100.000
198.216	574.800	1090.000
198.356	575.100	1170.000
198.496	575.700	1040.000
198.637	576.000	1160.000
198.776	576.300	1250.000
198.916	576.600	1120.000
199.058	577.300	1060.000
199.199	577.600	1120.000
199.340	578.000	1140.000
199.479	578.300	1100.000
199.618	578.900	1040.000
199.758	579.200	1130.000
199.897	579.500	1240.000
200.039	579.900	1040.000
200.202	580.500	1160.000
200.341	580.800	1100.000
200.482	581.500	1090.000
200.622	581.800	1160.000
200.762	582.100	1060.000
200.902	582.500	1180.000
201.042	583.100	1300.000
201.182	583.400	1050.000
201.322	583.700	1090.000
201.462	584.100	1120.000
201.601	584.700	1080.000
201.741	585.000	1020.000
201.881	585.400	1120.000
202.023	586.000	1150.000
202.162	586.300	1100.000
202.301	586.600	1000.000
202.441	587.000	1120.000
202.581	587.600	1050.000
202.722	587.900	1210.000
202.861	588.300	1040.000
203.001	588.600	1210.000
203.142	589.200	1100.000
203.282	589.600	1160.000
203.421	589.900	1080.000
203.561	590.500	1050.000
203.701	590.900	1130.000
203.841	591.200	1100.000
203.981	591.500	1160.000
204.121	592.200	1090.000
204.261	592.500	1130.000
204.400	592.800	1100.000
204.539	593.100	1260.000
204.679	593.800	1100.000
204.818	594.100	1170.000
204.958	594.400	1130.000
205.099	595.100	1090.000
205.239	595.400	1230.000
205.379	595.700	1090.000
205.518	596.100	1040.000
205.657	596.700	1230.000
205.798	597.000	1070.000
205.937	597.400	1060.000
206.077	597.700	1170.000
206.218	598.300	1090.000
206.359	598.600	1200.000
206.501	599.000	1140.000
206.640	599.600	1160.000
206.781	599.900	1160.000
206.921	600.200	1070.000
207.062	600.600	1130.000
207.200	601.200	1350.000
207.342	601.500	1040.000
207.480	601.900	1170.000
207.620	602.200	1150.000
207.760	602.800	1140.000
207.898	603.200	1110.000
208.038	603.500	1100.000
208.178	603.800	1050.000
208.316	604.400	1230.000
208.458	604.700	1140.000
208.599	605.100	1170.000
208.739	605.400	1050.000
208.877	606.000	1140.000
209.018	606.300	1050.000
209.157	606.700	1040.000
209.295	607.300	1140.000
209.434	607.600	1160.000
209.575	607.900	1140.000
209.724	608.600	1090.000
209.863	608.900	1120.000
210.002	609.200	1140.000
210.143	609.500	1240.000
210.282	610.200	1270.000
210.423	610.500	1030.000
210.563	610.800	1210.000
210.701	611.500	1140.000
210.841	611.800	1090.000
210.981	612.100	1190.000
211.121	612.400	1110.000
211.259	613.100	1180.000
211.399	613.400	1140.000
211.537	613.700	1030.000
211.677	614.100	1120.000
211.816	614.800	1130.000
211.956	615.100	1260.000
212.096	615.400	1060.000
212.235	616.100	1120.000
212.373	616.100	1180.000
212.515	616.800	1110.000
212.654	617.200	1070.000
212.792	617.900	1160.000
212.932	618.300	1110.000
213.072	618.600	1060.000
213.210	619.000	1270.000
213.351	619.700	1100.000
213.490	620.100	1060.000
213.629	620.400	1270.000
213.768	620.800	1200.000
213.908	621.500	1030.000
214.047	621.800	1140.000
214.208	622.200	1170.000
214.346	622.900	1270.000
214.488	623.200	1080.000
214.628	623.600	1080.000
214.768	623.900	1190.000
214.909	624.600	1100.000
215.050	624.900	1070.000
215.190	625.200	1100.000
215.329	625.600	1170.000
215.468	626.200	1130.000
215.608	626.600	1110.000
215.748	626.900	1130.000
215.888	627.500	1130.000
216.026	627.800	1300.000
216.166	628.100	1200.000
216.305	628.500	1210.000
216.517	629.100	1080.000
216.658	629.700	1270.000
216.799	630.100	1210.000
216.939	630.400	1120.000
217.077	630.700	1140.000
217.216	631.300	1120.000
217.356	631.600	1050.000
217.495	631.900	1100.000
217.634	632.300	1250.000
217.773	632.900	1090.000
217.914	633.200	1100.000
218.054	633.500	1080.000
218.193	634.200	1260.000
218.332	634.500	1140.000
218.472	634.800	1060.000
218.611	635.100	1160.000
218.751	635.800	1130.000
218.890	636.100	1200.000
219.030	636.500	1150.000
219.169	636.800	1160.000
219.309	637.400	1230.000
219.448	637.800	1120.000
219.588	638.100	1070.000
219.727	638.400	1200.000
219.866	639.100	1140.000
220.006	639.400	1130.000
220.146	639.700	1110.000
220.286	640.400	1050.000
220.426	640.700	1140.000
220.566	641.000	1150.000
220.705	641.400	1070.000
220.845	642.000	1160.000
220.984	642.300	1070.000
221.125	642.700	1220.000
221.265	643.300	1140.000
221.403	643.700	1190.000
221.543	644.000	1140.000
221.685	644.300	1140.000
221.825	644.700	1340.000
221.988	645.300	1080.000
222.128	645.700	1100.000
222.268	646.300	1190.000
222.408	646.700	1160.000
222.547	647.000	1180.000
222.687	647.600	1090.000
222.826	647.900	1150.000
222.966	648.300	1220.000
223.106	648.600	1250.000
223.245	649.300	1090.000
223.386	649.600	1250.000
223.526	649.900	1080.000
223.664	650.300	1260.000
223.805	650.900	1170.000
223.944	651.200	1290.000
224.084	651.600	1180.000
224.225	651.900	1010.000
224.365	652.500	1240.000
224.505	652.900	1100.000
224.644	653.200	1170.000
224.784	653.500	1150.000
224.923	653.800	1110.000
225.063	654.500	1090.000
225.203	654.800	1200.000
225.342	655.400	1300.000
225.481	655.800	1090.000
225.620	656.100	1120.000
225.759	656.400	1160.000
225.899	656.700	1170.000
226.039	657.400	1140.000
226.179	657.700	1180.000
226.320	658.100	1060.000
226.460	658.700	1090.000
226.599	659.000	1110.000
226.742	659.400	1330.000
226.882	659.700	1190.000
227.021	660.300	1200.000
227.170	660.700	1100.000
227.311	661.000	1150.000
227.450	661.300	1310.000
227.590	662.000	1190.000
227.729	662.300	1150.000
227.870	662.600	1080.000
228.010	663.300	1260.000
228.149	663.600	1250.000
228.311	664.200	1130.000
228.450	664.600	1140.000
228.590	664.900	1260.000
228.729	665.200	1190.000
228.869	665.900	1120.000
229.009	666.200	1160.000
229.149	666.500	1130.000
229.290	667.200	1120.000
229.431	667.500	1210.000
229.572	667.800	1080.000
229.711	668.100	1090.000
229.852	668.800	1160.000
229.992	669.100	1140.000
230.131	669.400	1180.000
230.271	669.700	1110.000
230.411	670.400	1190.000
230.572	670.700	1330.000
230.729	671.000	1170.000
230.884	671.700	1130.000
231.024	671.700	1170.000
231.164	672.600	1090.000
231.304	673.000	1090.000
231.443	673.300	1160.000
231.583	673.600	1210.000
231.724	674.300	1100.000
231.863	674.600	1310.000
232.004	674.900	1200.000
232.144	675.300	1310.000
232.293	675.600	1080.000
232.433	676.200	1260.000
232.573	676.600	1350.000
232.713	677.200	1370.000
232.852	677.500	1240.000
232.993	677.900	1450.000
233.132	678.200	1250.000
233.273	678.900	1190.000
233.413	679.200	1410.000
233.553	679.500	1220.000
233.692	680.200	1230.000
233.832	680.500	1110.000
233.973	680.800	1310.000
234.112	681.100	1150.000
234.252	681.800	1170.000
234.392	682.100	1190.000
234.532	682.400	1330.000
234.672	682.800	1130.000
234.813	683.400	1220.000
234.952	683.700	1290.000
235.094	684.100	1220.000
235.234	684.400	1240.000
235.374	685.000	1210.000
235.514	685.300	1070.000
235.653	685.700	1130.000
235.794	686.300	1120.000
235.934	686.600	1110.000
236.073	687.000	1240.000
236.212	687.300	1400.000
236.353	687.900	1120.000
236.492	688.300	1250.000
236.632	688.600	1360.000
236.773	689.200	1250.000
236.912	689.600	1320.000
237.053	689.900	1170.000
237.192	690.200	1320.000
237.333	690.200	1460.000
237.473	691.200	1290.000
237.612	691.500	1370.000
237.752	691.800	1150.000
237.893	692.500	1200.000
238.033	692.800	1170.000
238.174	693.100	1340.000
238.313	693.800	1390.000
238.453	694.100	1170.000
238.594	694.400	1190.000
238.734	694.700	1230.000
238.873	695.400	1360.000
239.017	695.700	1240.000
239.157	696.000	1240.000
239.297	696.300	1250.000
239.436	697.000	1250.000
239.576	697.300	1250.000
239.715	697.600	1220.000
239.856	698.300	1300.000
239.995	698.300	1110.000
240.136	699.000	1370.000
240.277	699.300	1260.000
240.417	699.900	1260.000
240.559	700.300	1220.000
240.699	700.600	1180.000
240.841	700.900	1160.000
240.980	701.500	1200.000
241.119	701.900	1310.000
241.259	702.200	1180.000
241.399	702.800	1300.000
241.538	703.200	1160.000
241.679	703.500	1370.000
241.820	703.800	1460.000
241.960	704.500	1400.000
242.099	704.800	1480.000
242.240	705.100	1150.000
242.381	705.400	1200.000
242.521	706.100	1320.000
242.660	706.400	1250.000
242.801	706.700	1320.000
242.941	707.400	1330.000
243.080	707.700	1270.000
243.220	708.100	1230.000
243.361	708.400	1130.000
243.501	708.400	1300.000
243.642	709.300	1250.000
243.781	709.700	1210.000
243.922	710.000	1130.000
244.062	710.600	1130.000
244.210	710.900	1250.000
244.349	711.300	1270.000
244.491	711.600	1080.000
244.630	712.200	1230.000
244.770	712.500	1320.000
244.910	712.900	1150.000
245.051	713.200	1200.000
245.190	713.800	1180.000
245.330	714.100	1120.000
245.469	714.500	1260.000
245.610	714.800	1210.000
245.750	715.400	1170.000
245.890	715.700	1230.000
246.028	716.100	1160.000
246.167	716.700	1240.000
246.308	717.000	1280.000
246.448	717.700	1290.000
246.587	718.000	1270.000
246.727	718.300	1220.000
246.867	718.700	1220.000
247.006	719.300	1130.000
247.145	719.300	1330.000
247.284	719.900	1150.000
247.423	720.200	1130.000
247.563	720.900	1260.000
247.701	721.200	1180.000
247.841	721.500	1420.000
247.981	721.900	1370.000
248.121	722.500	1120.000
248.273	722.800	1100.000
248.434	723.200	1280.000
248.588	723.800	1150.000
248.727	724.200	1270.000
248.868	724.500	1220.000
249.007	725.200	1180.000
249.147	725.500	1210.000
249.287	725.800	1160.000
249.426	726.400	1240.000
249.565	726.800	1150.000
249.704	726.800	1220.000
249.843	727.400	1200.000
249.983	728.000	1320.000
250.124	728.400	1150.000
250.266	728.700	1200.000
250.406	729.000	1220.000
250.546	729.700	1330.000
250.687	730.000	1130.000
250.827	730.300	1330.000
250.966	730.600	1110.000
251.105	730.900	1280.000
251.244	731.600	1220.000
251.383	731.900	1240.000
251.523	732.600	1210.000
251.663	732.900	1260.000
251.802	733.300	1340.000
251.942	733.600	1360.000
252.080	734.200	1250.000
252.218	734.600	1360.000
252.357	734.900	1330.000
252.496	735.200	1320.000
252.636	735.500	1200.000
252.797	736.200	1260.000
252.937	736.800	1110.000
253.076	737.100	1270.000
253.216	737.500	1390.000
253.354	737.800	1220.000
253.494	738.400	1260.000
253.632	738.800	1340.000
253.784	739.100	1250.000
253.926	739.400	1370.000
254.068	740.100	1250.000
254.207	740.400	1450.000
254.354	740.700	1170.000
254.495	741.400	1240.000
254.648	741.700	1190.000
254.788	742.000	1100.000
254.927	742.300	1220.000
255.068	743.000	1130.000
255.208	743.300	1190.000
255.346	743.600	1210.000
255.486	744.300	1370.000
255.626	744.600	1170.000
255.764	744.900	1290.000
255.903	745.200	1390.000
256.044	745.600	1310.000
256.184	746.200	1380.000
256.324	746.500	1310.000
256.464	746.900	1290.000
256.603	747.500	1130.000
256.743	747.900	1320.000
256.883	748.200	1250.000
257.023	748.500	1180.000
257.163	749.200	1180.000
257.309	749.500	1220.000
257.448	750.100	1160.000
257.587	750.100	1280.000
257.727	750.800	1230.000
257.868	751.100	1300.000
258.008	751.800	1260.000
258.149	752.100	1320.000
258.289	752.400	1280.000
258.428	752.800	1220.000
258.568	753.400	1280.000
258.709	753.700	1280.000
258.849	754.000	1400.000
258.989	754.700	1430.000
259.128	754.700	1210.000
259.270	755.300	1200.000
259.409	755.600	1310.000
259.550	756.300	1310.000
259.689	756.600	1360.000
259.830	756.900	1450.000
259.970	757.300	1280.000
260.110	757.900	1430.000
260.249	758.200	1260.000
260.390	758.500	1160.000
260.530	758.900	1450.000
260.671	759.500	1220.000
260.811	759.800	1260.000
260.950	760.200	1320.000
261.090	760.800	1430.000
261.228	761.100	1260.000
261.369	761.500	1370.000
261.508	761.800	1140.000
261.647	762.400	1480.000
261.788	762.800	1180.000
261.927	763.100	1290.000
262.068	763.400	1320.000
262.208	764.000	1160.000
262.348	764.400	1260.000
262.487	764.700	1200.000
262.627	765.000	1480.000
262.766	765.700	1180.000
262.905	766.000	1360.000
263.045	766.300	1170.000
263.183	766.600	1370.000
263.324	767.300	1080.000
263.464	767.600	1110.000
263.604	767.900	1310.000
263.744	768.300	1350.000
263.884	768.900	1140.000
264.025	769.200	1180.000
264.165	769.600	1220.000
264.305	769.900	1350.000
264.444	770.500	1210.000
264.585	770.800	1190.000
264.725	771.200	1410.000
264.864	771.800	1300.000
265.005	772.100	1210.000
265.146	772.800	1360.000
265.285	773.100	1280.000
265.426	773.400	1190.000
265.565	773.700	1300.000
265.705	774.300	1220.000
265.845	774.700	1310.000
265.984	775.000	1340.000
266.125	775.300	1320.000
266.265	776.000	1350.000
266.405	776.000	1410.000
266.544	776.600	1180.000
266.684	777.000	1340.000
266.824	777.600	1100.000
266.963	778.000	1380.000
267.103	778.300	1260.000
267.244	778.600	1370.000
267.382	779.300	1160.000
267.523	779.600	1050.000
267.663	779.900	1440.000
267.803	780.600	1480.000
267.944	780.900	1170.000
268.084	781.200	1200.000
268.224	781.200	1280.000
268.364	782.200	1250.000
268.503	782.500	1180.000
268.643	782.900	1130.000
268.783	783.200	1280.000
268.923	783.800	1210.000
269.062	784.200	1220.000
269.202	784.500	1250.000
269.342	784.800	1510.000
269.482	785.500	1210.000
269.620	785.800	1130.000
269.761	786.100	1260.000
269.901	786.800	1190.000
270.040	787.100	1330.000
270.181	787.400	1240.000
270.321	787.700	1250.000
270.461	788.400	1130.000
270.601	788.700	1340.000
270.741	789.000	1350.000
270.882	789.700	1260.000
271.022	790.000	1570.000
271.163	790.300	1350.000
271.302	790.600	1200.000
271.442	791.300	1180.000
271.581	791.600	1290.000
271.722	791.900	1450.000
271.862	792.200	1470.000
272.001	792.900	1280.000
272.142	793.200	1300.000
272.281	793.500	1430.000
272.442	794.200	1410.000
272.582	794.500	1270.000
272.738	795.200	1380.000
272.876	795.200	1260.000
273.017	795.800	1320.000
273.156	796.100	1200.000
273.296	796.800	1490.000
273.436	797.100	1280.000
273.576	797.400	1350.000
273.716	797.700	1440.000
273.855	798.400	1230.000
273.995	798.700	1380.000
274.134	799.000	1180.000
274.275	799.300	1300.000
274.415	799.300	1370.000
274.555	800.300	1230.000
274.694	800.600	1460.000
274.835	800.900	1460.000
274.975	801.600	1520.000
275.116	801.900	1180.000
275.256	802.200	1260.000
275.396	802.600	1190.000
275.536	803.200	1250.000
275.675	803.500	1380.000
275.816	803.800	1230.000
275.956	804.500	1230.000
276.096	804.800	1340.000
276.236	805.200	1180.000
276.376	805.500	1280.000
276.516	806.200	1420.000
276.656	806.500	1550.000
276.796	806.800	1360.000
276.936	807.500	1360.000
277.100	807.800	1170.000
277.241	808.100	1330.000
277.381	808.700	1150.000
277.521	809.100	1300.000
277.661	809.400	1200.000
277.801	809.700	1370.000
277.942	810.400	1420.000
278.081	810.700	1500.000
278.222	811.000	1230.000
278.363	811.600	1300.000
278.502	812.000	1200.000
278.642	812.300	1530.000
278.781	812.600	1290.000
278.922	813.200	1390.000
279.062	813.600	1180.000
279.202	813.900	1230.000
279.343	814.200	1210.000
279.484	814.900	1540.000
279.642	815.200	1220.000
279.783	815.500	1380.000
279.938	816.200	1290.000
280.078	816.500	1450.000
280.219	816.800	1310.000
280.361	817.100	1380.000
280.501	817.800	1400.000
280.642	818.100	1340.000
280.782	818.700	1440.000
280.922	819.000	1380.000
281.063	819.400	1340.000
281.203	819.700	1380.000
281.343	820.300	1430.000
281.484	820.700	1440.000
281.626	821.000	1330.000
281.766	821.300	1280.000
281.906	821.900	1380.000
282.045	822.300	1230.000
282.185	822.600	1440.000
282.325	823.200	1510.000
282.464	823.500	1300.000
282.606	823.900	1200.000
282.747	824.500	1170.000
282.887	824.800	1350.000
283.028	825.200	1360.000
283.168	825.500	1370.000
283.307	825.800	1310.000
283.449	826.500	1300.000
283.589	826.800	1250.000
283.728	827.100	1370.000
283.870	827.800	1430.000
284.009	828.100	1270.000
284.148	828.400	1220.000
284.289	829.100	1250.000
284.430	829.100	1620.000
284.569	829.700	1060.000
284.709	830.000	1250.000
284.849	830.700	1440.000
284.989	831.000	1360.000
285.129	831.300	1220.000
285.269	831.600	1360.000
285.408	832.300	1390.000
285.547	832.600	1260.000
285.707	832.900	1580.000
285.846	833.600	1330.000
285.987	833.900	1370.000
286.126	834.200	1450.000
286.266	834.600	1220.000
286.406	835.200	1260.000
286.546	835.500	1370.000
286.686	835.900	1440.000
286.826	836.200	1540.000
286.965	836.800	1430.000
287.105	837.200	1580.000
287.243	837.500	1350.000
287.383	838.100	1140.000
287.524	838.500	1370.000
287.665	838.800	1540.000
287.804	839.100	1330.000
287.945	839.400	1420.000
288.085	840.100	1210.000
288.225	840.400	1270.000
288.363	840.700	1310.000
288.504	841.300	1380.000
288.644	841.700	1370.000
288.783	842.000	1240.000
288.923	842.300	1160.000
289.062	843.000	1210.000
289.201	843.300	1480.000
289.341	843.600	1320.000
289.480	844.300	1310.000
289.619	844.600	1390.000
289.760	844.900	1420.000
289.900	845.200	1480.000
290.040	845.500	1290.000
290.180	846.200	1190.000
290.319	846.500	1440.000
290.459	847.200	1340.000
290.599	847.500	1290.000
290.739	847.800	1400.000
290.879	848.200	1460.000
291.018	848.800	1210.000
291.159	849.100	1530.000
291.298	849.500	1360.000
291.437	850.100	1320.000
291.578	850.400	1510.000
291.718	850.700	1380.000
291.857	851.100	1350.000
291.997	851.700	1430.000
292.136	852.000	1410.000
292.275	852.400	1320.000
292.417	852.700	1480.000
292.556	853.300	1470.000
292.695	853.600	1370.000
292.834	854.000	1320.000
292.972	854.300	1470.000
293.112	854.900	1560.000
293.250	855.200	1350.000
293.390	855.600	1500.000
293.529	855.900	1550.000
293.669	856.500	1350.000
293.808	856.900	1500.000
293.947	857.200	1420.000
294.086	857.500	1610.000
294.226	858.100	1440.000
294.365	858.500	1390.000
294.505	858.800	1340.000
294.645	859.500	1350.000
294.785	859.800	1370.000
294.924	859.800	1290.000
295.064	860.400	1530.000
295.204	861.100	1520.000
295.345	861.400	1500.000
295.486	861.700	1460.000
295.624	862.100	1190.000
295.764	862.700	1520.000
295.906	863.000	1440.000
296.045	863.400	1260.000
296.185	864.000	1480.000
296.325	864.300	1460.000
296.464	864.700	1420.000
296.604	865.000	1710.000
296.744	865.600	1560.000
296.884	865.900	1770.000
297.023	866.200	1200.000
297.162	866.600	1340.000
297.300	866.900	1440.000
297.439	867.500	1300.000
297.579	867.800	1380.000
297.719	868.200	1540.000
297.859	868.800	1460.000
297.998	869.100	1270.000
298.137	869.500	1260.000
298.277	870.100	1490.000
298.416	870.400	1560.000
298.555	870.700	1300.000
298.694	871.000	1450.000
298.833	871.700	1520.000
298.974	872.000	1300.000
299.113	872.000	1410.000
299.251	873.000	1300.000
299.392	873.300	1670.000
299.532	873.600	1540.000
299.672	874.000	1460.000
299.812	874.600	1200.000
299.952	874.900	1350.000
300.092	875.300	1450.000
300.232	875.600	1540.000
300.377	876.300	1240.000
300.526	876.600	1230.000
300.677	876.900	1460.000
300.833	877.500	1490.000
300.993	877.900	1570.000
301.134	878.500	1410.000
301.273	878.500	1430.000
301.412	879.200	1230.000
301.553	879.500	1620.000
301.693	880.100	1630.000
301.834	880.500	1340.000
301.973	880.800	1470.000
302.132	881.400	1540.000
302.272	881.700	1460.000
302.412	882.100	1390.000
302.551	882.700	1580.000
302.691	883.000	1340.000
302.831	883.300	1640.000
302.970	883.700	1390.000
303.110	884.300	1400.000
303.250	884.600	1250.000
303.390	885.000	1350.000
303.530	885.300	1360.000
303.670	885.900	1460.000
303.809	886.200	1240.000
303.949	886.500	1120.000
304.087	887.200	1530.000
304.228	887.500	1250.000
304.368	887.800	1490.000
304.508	888.100	1170.000
304.649	888.800	1400.000
304.791	889.100	1330.000
304.931	889.400	1380.000
305.072	889.800	1360.000
305.211	890.400	1600.000
305.351	890.700	1270.000
305.491	891.100	1430.000
305.630	891.400	1330.000
305.770	892.000	1570.000
305.909	892.400	1320.000
306.050	892.700	1620.000
306.189	893.300	1520.000
306.328	893.700	1390.000
306.468	894.000	1440.000
306.608	894.300	1410.000
306.748	894.900	1470.000
306.888	895.300	1380.000
307.028	895.600	1560.000
307.168	895.900	1430.000
307.308	896.500	1400.000
307.447	896.900	1380.000
307.586	897.200	1390.000
307.726	897.500	1480.000
307.867	898.100	1350.000
308.006	898.400	1650.000
308.145	898.800	1320.000
308.285	899.400	1370.000
308.425	899.700	1530.000
308.565	900.100	1450.000
308.705	900.400	1520.000
308.845	901.000	1360.000
308.985	901.400	1490.000
309.125	901.700	1490.000
309.264	902.000	1520.000
309.404	902.600	1420.000
309.544	903.000	1350.000
309.684	903.300	1410.000
309.824	903.600	1500.000
309.964	904.200	1340.000
310.104	904.600	1380.000
310.244	904.900	1350.000
310.385	905.500	1630.000
310.525	905.800	1620.000
310.665	906.200	1440.000
310.805	906.500	1430.000
310.945	906.800	1420.000
311.086	907.500	1790.000
311.225	907.800	1560.000
311.365	908.400	1300.000
311.505	908.800	1280.000
311.645	909.100	1460.000
311.785	909.400	1370.000
311.925	910.100	1540.000
312.064	910.400	1400.000
312.205	910.700	1350.000
312.343	911.300	1400.000
312.484	911.600	1610.000
312.624	912.000	1650.000
312.765	912.300	1430.000
312.906	913.000	1390.000
313.046	913.300	1590.000
313.185	913.600	1310.000
313.326	913.900	1650.000
313.466	914.600	1320.000
313.606	914.900	1370.000
313.746	915.200	1440.000
313.886	915.800	1430.000
314.026	916.100	1260.000
314.166	916.500	1470.000
314.306	916.800	1380.000
314.446	917.400	1500.000
314.584	917.800	1440.000
314.725	918.100	1470.000
314.865	918.400	1500.000
315.005	919.100	1470.000
315.146	919.400	1620.000
315.286	919.700	1590.000
315.426	920.000	1330.000
315.566	920.000	1480.000
315.705	920.700	1430.000
315.860	921.000	1480.000
316.022	921.200	1370.000
316.173	921.300	1350.000
316.326	921.400	1560.000
316.467	921.400	1550.000
316.617	921.400	1360.000
316.759	921.400	1530.000
316.917	921.300	1190.000
317.077	921.300	1380.000
317.233	921.100	1530.000
317.373	920.900	1400.000
317.514	920.800	1520.000
317.654	920.500	1580.000
317.794	920.700	1230.000
317.934	921.000	1370.000
318.074	921.000	1310.000
318.214	920.700	1250.000
318.354	920.400	1670.000
318.494	919.900	1280.000
318.634	918.500	1420.000
318.774	917.700	1290.000
318.914	916.800	1480.000
319.054	915.800	1380.000
319.194	913.600	1150.000
319.334	912.500	1300.000
319.474	911.400	1370.000
319.614	909.000	1380.000
319.754	907.800	1220.000
319.895	906.600	1290.000
320.034	905.400	1270.000
320.174	902.900	1360.000
320.314	901.600	1430.000
320.454	900.400	1280.000
