Tue, Oct 10, 2017	2:03 PM
 Notes: GUA_ 1.94e-09_30s_0.05L_101017
 waiting time: 50.000
 time(s)	 temp (K)	 MS1=30.937	 MS2=17.798	 MS3=125.586	 MS4=1.994	 MS5=28.936	 MS6=95.042	 MS7=78.871	 MS8=27.907
0.000	97.400	136.928	572.693	265.871	1364.683	676.023	224.733	126.497	4412.898
1.025	97.400	1471.542	779.902	298.464	1377.623	673.323	224.491	127.681	4424.984
1.978	97.500	1509.522	789.696	299.941	1378.133	678.800	223.828	126.547	4412.197
2.938	97.500	1265.262	749.283	295.012	1386.501	675.183	224.236	126.344	4421.979
3.983	97.500	457.479	624.110	278.239	1377.076	678.431	224.236	127.401	4413.394
4.957	97.500	1023.983	718.780	290.580	1383.648	686.837	225.331	127.388	4427.506
5.914	97.500	1322.717	763.434	299.534	1372.898	673.833	224.045	127.337	4449.298
6.902	97.500	915.800	698.389	288.555	1380.642	675.527	224.720	126.751	4460.723
7.895	97.500	840.145	694.733	287.103	1392.117	681.360	222.873	126.293	4506.383
8.846	97.600	1468.180	806.687	304.896	1403.529	683.716	225.280	126.981	4476.325
9.856	97.600	672.075	679.781	285.346	1407.388	676.367	223.956	126.267	4484.425
10.831	97.600	1044.909	733.936	297.076	1397.263	683.703	225.421	126.573	4496.525
11.789	97.600	1352.813	788.830	304.616	1403.313	678.800	224.172	126.471	4508.918
12.772	97.600	1002.140	732.841	298.324	1398.524	685.830	228.210	127.350	4485.737
13.727	97.600	1342.917	787.047	307.138	1396.932	682.137	224.121	126.815	4565.111
14.687	97.600	1359.627	793.657	307.876	1400.676	680.010	224.007	126.637	4895.991
15.648	97.800	1442.821	805.821	312.563	1399.492	697.026	229.318	127.388	6858.563
16.625	98.200	1664.385	853.569	318.065	1433.587	729.453	238.170	128.929	8129.699
17.601	99.000	1831.767	876.699	322.498	1410.190	726.944	236.922	128.725	6860.270
18.581	100.500	1482.202	819.117	315.353	1430.683	730.905	238.323	128.700	7570.442
19.540	102.900	2159.998	930.345	334.648	1437.255	737.884	242.233	129.604	7831.042
20.499	105.600	2262.081	955.907	338.597	1456.628	734.726	238.717	129.197	7347.783
21.456	109.400	2118.770	923.403	332.470	1456.742	740.826	240.462	129.197	6963.983
22.416	113.500	2000.767	913.838	329.324	1458.716	731.554	239.227	128.662	6683.424
23.373	117.700	2004.040	914.832	334.432	1467.339	734.815	239.889	129.171	6618.316
24.333	121.400	1955.247	912.768	329.184	1480.776	742.648	240.475	130.101	6433.548
25.292	125.500	1903.155	901.942	331.044	1480.903	737.158	239.316	127.872	6424.187
26.249	129.400	1825.411	896.517	328.497	1475.032	736.534	235.533	128.216	6416.570
27.211	132.900	1886.648	922.283	336.686	1486.112	741.731	239.125	129.668	6374.756
28.209	137.100	1067.797	807.081	323.555	1480.050	743.947	239.953	129.069	6303.432
29.168	140.400	1806.638	949.386	348.111	1483.451	743.539	241.086	130.177	6264.828
30.169	144.100	1025.066	848.004	337.056	1493.194	745.157	241.201	129.872	6158.593
31.152	147.700	1313.776	925.148	353.358	1487.768	751.945	242.513	129.795	6014.481
32.114	151.200	1720.157	1020.532	372.998	1469.466	741.833	239.775	129.732	5865.362
33.075	154.700	1715.292	1039.955	383.798	1457.468	732.701	237.762	129.311	5840.730
34.075	158.100	979.457	955.143	374.246	1470.128	726.294	236.743	129.732	5761.191
35.035	161.400	1702.454	1087.322	394.471	1454.997	734.178	238.399	130.267	5694.490
35.993	164.300	1686.992	1074.547	399.286	1454.373	729.695	237.890	130.407	5685.906
36.951	167.600	1661.022	1079.094	395.070	1453.494	729.975	238.323	131.273	5627.114
37.912	170.700	1670.065	1073.401	393.873	1448.336	727.097	239.010	132.992	5613.703
38.871	173.900	1690.201	1068.153	398.560	1460.882	737.209	240.908	133.986	5619.027
39.825	176.700	1772.823	1072.484	406.991	1462.626	740.342	243.837	134.126	5645.404
40.781	179.800	1654.208	1070.662	421.282	1476.573	755.448	246.576	134.291	5645.773
41.799	182.900	750.099	919.481	429.089	1478.878	776.629	254.765	136.673	5685.766
42.759	186.000	1686.941	1087.818	524.753	1503.319	829.994	272.393	142.277	5669.285
43.715	189.000	1702.925	1108.935	651.302	1576.299	925.505	304.743	153.307	5767.954
44.674	191.700	1737.696	1131.441	874.292	1655.074	1070.064	353.154	170.896	5910.233
45.632	194.800	1846.758	1197.734	1222.672	1764.671	1283.577	423.243	194.637	6105.763
46.612	197.800	1503.256	1195.823	1597.327	1893.017	1464.741	485.219	215.308	6212.863
47.571	200.800	1989.826	1293.104	1648.375	1897.462	1447.865	474.176	204.915	5950.862
48.526	203.500	2043.612	1248.336	1082.775	1636.046	1105.395	361.140	163.649	5310.690
49.503	206.500	1192.576	1026.301	648.678	1475.885	933.644	311.443	150.951	5371.914
50.460	209.500	1598.359	1095.269	643.125	1532.919	936.866	307.112	151.409	5398.928
51.418	212.500	1629.143	1098.619	650.283	1578.872	952.035	310.971	152.262	5464.011
52.404	215.400	1175.292	1025.703	653.327	1612.267	976.998	317.276	154.631	5450.982
53.364	218.100	1635.753	1101.905	682.799	1671.402	999.937	321.097	154.147	5499.622
54.343	221.100	1304.478	1053.315	687.180	1725.761	1045.610	332.598	157.943	5517.683
55.320	224.100	1416.100	1087.576	701.433	1799.760	1058.397	333.846	156.427	5529.808
56.312	227.000	1053.583	1013.450	678.647	1851.827	1074.470	335.807	156.631	5541.869
57.316	230.000	980.144	993.327	643.596	1866.754	1061.683	329.987	154.861	5425.598
58.294	233.000	1249.304	1030.491	592.167	1883.375	1023.563	315.684	149.983	5331.998
59.252	236.000	1603.721	1070.637	550.124	1862.640	997.937	307.380	147.550	5335.628
60.250	238.900	959.333	972.222	501.012	1855.597	972.604	296.859	143.996	5328.827
61.225	241.900	1344.025	1028.759	483.321	1847.866	955.843	293.611	142.977	5350.007
62.219	244.900	1003.452	981.775	465.362	1863.659	959.804	290.759	141.233	5376.232
63.181	247.500	1599.938	1066.332	463.465	1854.400	945.476	287.574	140.443	5321.707
64.143	250.500	1592.831	1069.911	455.988	1838.390	942.992	285.664	140.316	5329.820
65.102	253.500	1617.795	1060.970	451.085	1844.363	929.135	282.989	139.895	5272.621
66.100	256.500	945.208	958.964	432.579	1825.717	931.427	282.340	139.615	5305.442
67.068	259.400	1389.507	1029.638	437.075	1839.180	932.026	284.645	139.768	5262.228
68.028	262.400	1561.640	1049.367	440.539	1849.942	931.682	285.180	139.679	5337.678
68.990	265.000	1564.009	1058.002	440.692	1877.325	941.031	286.415	140.443	5214.211
70.017	268.300	653.098	911.660	416.658	1889.603	940.216	284.581	139.475	5244.753
70.983	270.900	1465.174	1029.027	433.547	1891.399	929.275	253.721	134.559	5265.093
71.968	273.900	1312.655	1011.794	421.396	1923.788	942.292	281.626	139.131	5237.659
72.928	276.900	1552.151	1040.859	432.477	1939.390	960.849	289.459	140.201	5223.139
73.874	279.900	1724.755	1082.176	438.208	1987.343	960.479	286.619	139.348	5282.428
74.873	282.900	880.545	947.666	413.296	2040.708	977.304	289.243	139.602	5318.293
75.832	285.500	1547.604	1053.685	437.419	2074.715	998.663	292.809	141.207	5287.637
76.792	288.500	1570.504	1046.692	435.457	2113.472	1010.661	293.013	141.080	5307.378
77.751	291.400	1552.699	1051.214	433.776	2168.672	1027.511	295.980	141.959	5345.511
78.708	294.400	1774.020	994.307	384.219	1370.198	785.238	254.663	133.374	4661.042
79.666	297.000	1379.890	960.314	399.133	2109.931	1003.694	293.981	140.252	4908.587
80.624	300.000	1473.605	1010.126	419.881	2198.806	1046.272	298.770	141.093	5099.914
81.582	303.000	1490.277	1029.218	424.759	2280.727	1066.306	304.501	142.086	5164.514
82.543	305.900	1504.975	1033.612	431.802	2356.560	1086.379	306.806	143.512	5243.199
83.502	308.600	1531.785	1040.171	434.107	2445.562	1121.659	311.557	143.793	5258.356
84.463	311.500	1536.027	1053.977	436.833	2503.500	1142.878	315.314	145.588	5241.518
85.422	314.500	1584.807	1061.505	439.342	2632.278	1188.283	322.370	146.314	5244.562
86.381	317.100	1562.111	1050.832	433.241	2791.904	1233.179	330.853	147.053	5293.368
87.340	320.100	1554.010	1049.087	439.648	2958.306	1300.975	337.425	148.123	5324.840
88.305	323.000	1561.423	1052.908	438.463	3102.037	1343.693	349.537	150.416	5305.595
89.265	326.000	1580.706	1065.071	440.221	3241.144	1396.639	359.446	150.861	5296.973
90.226	328.700	1565.970	1062.918	436.629	3346.768	1415.858	359.612	152.326	5302.118
91.189	331.600	1562.748	1058.219	439.100	3369.579	1442.681	361.879	152.415	5372.933
92.149	334.600	1574.860	1065.033	432.477	3355.186	1424.073	362.719	152.352	5249.071
93.107	337.600	1588.488	1055.926	428.974	3257.867	1381.393	352.212	150.339	5241.416
94.068	340.200	1554.252	1057.263	427.064	3105.259	1338.051	349.002	150.135	5258.916
95.031	343.200	1553.603	1067.300	424.950	2955.848	1299.447	340.405	149.397	5285.319
95.993	346.100	1591.481	1071.796	425.739	2832.444	1245.164	333.744	149.002	5289.038
96.976	349.100	1121.481	991.913	411.742	2692.840	1197.976	325.109	147.830	5273.436
97.936	351.800	1562.200	1064.893	426.185	2599.278	1163.600	316.231	146.493	5264.520
98.898	354.700	1540.752	1067.453	423.090	2558.012	1156.710	315.467	147.117	5307.735
99.858	357.700	1574.694	1073.184	423.447	2572.608	1156.608	316.830	146.926	5325.706
100.817	360.700	1561.436	1074.534	425.918	2599.546	1171.357	321.746	148.874	5340.913
101.776	363.300	1601.224	1082.329	424.555	2661.075	1188.232	322.944	148.225	5256.369
102.737	366.300	1578.375	1077.565	427.841	2729.075	1206.369	323.886	148.276	5265.004
103.697	369.200	1572.695	1085.870	433.012	2846.123	1252.743	332.534	150.021	5327.859
104.659	372.200	1562.417	1085.755	424.950	2960.522	1289.564	339.004	151.969	5261.795
105.619	374.900	1594.589	1091.015	432.885	3029.554	1316.527	344.417	153.269	5275.448
106.575	377.800	1536.905	1089.372	426.274	3110.354	1331.747	345.895	152.492	5248.281
107.534	380.800	1563.346	1079.438	429.153	3145.048	1349.667	346.162	152.517	5292.515
108.495	383.400	1566.849	1086.124	425.969	3188.148	1378.744	350.658	153.663	5370.729
109.472	386.400	1249.406	1033.663	416.340	3214.971	1375.535	349.754	153.345	5451.326
110.433	389.400	1606.345	1093.728	430.299	3303.234	1394.474	330.649	154.109	5554.631
111.400	392.300	1659.952	1101.217	432.770	3325.969	1406.701	354.148	155.396	5676.926
112.360	395.300	1654.488	1097.804	431.522	3371.260	1428.939	361.318	156.364	5927.401
113.318	397.900	1707.319	1115.775	429.573	3409.291	1431.078	360.134	156.185	6118.053
114.276	400.900	1956.877	1156.506	433.177	3381.041	1429.957	365.229	156.975	6361.078
115.235	403.800	1878.000	1142.585	437.126	3332.541	1403.860	356.491	154.428	6688.442
116.195	406.500	1939.759	1135.924	433.267	3248.722	1398.333	358.657	155.052	7044.643
117.153	409.500	2021.234	1144.585	432.197	3158.943	1368.542	353.728	154.122	7276.701
118.112	412.400	2091.782	1170.478	440.590	3026.369	988.308	230.732	133.705	7703.652
119.136	415.400	2160.839	1179.355	438.820	2847.231	1272.051	340.023	151.575	7802.016
120.098	418.300	2279.810	1199.937	445.939	2716.810	1231.880	329.847	148.645	7993.470
121.081	421.300	1673.644	1102.363	427.204	2596.107	1184.411	325.020	148.582	8212.550
122.041	424.300	2375.524	1215.590	443.596	2498.036	1162.174	322.600	148.059	8394.553
123.000	426.900	2358.470	1207.019	444.729	2408.715	1136.433	318.002	146.404	8498.419
123.964	429.900	2382.516	1226.518	443.163	2348.816	1090.022	311.201	144.417	8585.180
124.920	432.800	2691.579	1275.261	454.269	2302.391	1087.551	310.908	144.952	8698.700
125.882	435.800	2426.610	1229.932	441.354	2268.627	1070.573	308.373	144.646	8851.410
126.846	438.500	2526.948	1242.375	451.161	2258.553	1071.350	306.080	144.137	8921.473
127.808	441.400	2568.863	1252.832	453.085	2234.506	1070.013	307.864	142.812	9092.931
128.769	444.400	2542.002	1249.699	448.932	2216.739	1063.594	308.475	143.436	9101.426
129.731	447.000	2569.105	1254.271	451.301	2205.467	1061.390	308.093	142.685	9112.978
130.709	450.000	1972.912	1169.803	441.724	2187.063	1058.461	305.380	143.016	9157.951
131.670	453.000	2624.687	1275.910	460.204	2174.505	1051.914	307.991	143.360	9173.680
132.628	456.000	2586.631	1266.116	457.606	2145.478	1045.113	303.788	141.589	9082.373
133.591	458.900	2582.912	1266.383	460.510	2114.351	1038.999	304.527	143.156	9178.418
134.549	461.600	2605.812	1264.129	458.969	2107.193	1035.535	303.864	141.768	9138.337
135.512	464.600	2578.365	1271.312	454.269	2108.212	1025.575	300.018	141.831	9172.776
136.471	467.500	2607.722	1270.446	460.281	2100.493	1029.829	301.890	142.570	9209.814
137.430	470.100	2597.317	1277.018	462.242	2113.981	1032.427	303.011	141.666	9234.726
138.419	473.100	1770.734	1154.468	445.850	2112.835	1034.414	306.221	143.551	9241.336
139.376	476.100	2562.712	1277.668	458.956	2159.170	1037.229	304.488	142.927	9148.539
140.336	479.100	2554.293	1273.707	463.248	2182.822	1039.649	303.266	142.595	9050.404
141.299	482.000	2548.791	1280.330	460.013	2172.862	1049.138	264.751	135.947	9506.891
142.277	485.000	2673.557	1298.836	462.535	2201.965	1066.128	307.558	142.837	8786.301
143.261	488.000	1769.626	1168.007	407.412	2214.230	1022.582	298.031	140.252	8695.503
144.238	490.600	2454.987	1276.152	461.287	2248.669	1068.115	308.042	143.130	8419.491
145.197	493.600	2408.805	1269.758	462.293	2261.673	1068.573	307.290	142.646	8118.758
146.154	496.500	2363.552	1261.314	462.026	2257.445	1067.160	304.947	142.328	7849.383
147.114	499.500	2235.856	1249.928	460.319	2247.459	1062.740	305.176	142.557	7501.435
148.075	502.100	2127.405	1234.950	454.600	2246.236	1056.168	304.094	142.799	7185.126
149.035	505.100	2104.977	1238.771	460.421	2271.824	1053.812	300.846	142.417	6866.855
149.993	508.100	1944.510	1212.253	457.415	2269.633	1060.269	302.361	142.710	6607.439
150.955	510.700	1871.938	1204.510	453.683	2265.239	1052.284	297.636	142.264	6324.944
151.914	513.700	1816.216	1198.829	453.721	2270.105	1048.972	298.133	142.022	6138.903
152.876	516.600	1749.808	1196.638	450.958	2293.896	1051.596	297.993	141.615	5948.951
153.835	519.600	1725.749	1197.199	456.205	2296.660	1051.800	298.986	141.768	5794.293
154.797	522.200	1752.266	1204.140	457.440	2298.061	1062.473	300.145	141.143	5747.270
155.755	525.200	1639.918	1186.029	452.078	2334.475	1061.976	300.145	141.385	5605.067
156.726	528.200	1463.238	1166.415	450.295	2292.330	1049.596	297.789	142.048	5519.950
157.722	531.200	1595.187	1194.040	455.071	2286.828	1047.533	296.668	141.424	5447.543
158.682	534.100	1594.589	1187.557	455.925	2274.639	1042.056	296.872	141.780	5374.818
159.643	536.800	1605.861	1198.791	460.306	2236.506	1042.158	298.184	142.048	5261.731
160.602	539.700	1549.081	1184.679	453.976	2230.825	1027.893	293.637	142.213	5258.725
161.561	542.700	1522.628	1192.384	462.408	2204.639	1019.245	292.631	140.468	5290.286
162.521	545.700	1514.948	1199.020	463.516	2197.902	1020.455	293.866	141.436	5273.920
163.482	548.300	1512.834	1201.096	461.096	2180.338	1002.981	291.115	140.290	5213.052
164.443	551.300	1533.900	1208.827	466.955	2147.287	993.887	287.256	140.914	5209.193
165.405	554.200	1511.547	1209.553	472.610	2091.336	978.310	285.002	140.965	5275.040
166.368	557.200	1522.106	1218.660	468.687	2110.619	982.297	286.263	140.035	5219.510
167.327	559.900	1523.545	1223.258	471.858	2087.629	978.056	286.161	140.367	5281.804
168.287	562.800	1529.786	1233.447	478.303	2059.367	968.248	284.518	140.239	5197.501
169.246	565.800	1520.501	1238.363	472.852	2033.869	963.039	283.779	139.628	5209.206
170.207	568.400	1533.607	1234.186	474.558	2018.190	953.691	283.333	139.666	5195.361
171.168	571.400	1501.040	1240.516	476.418	2004.932	951.678	284.454	139.984	5166.386
172.127	574.300	1492.328	1239.700	475.552	1961.144	934.217	277.704	138.902	5140.684
173.090	577.300	1514.935	1250.246	480.939	1947.656	939.184	280.162	139.857	5118.955
174.052	580.000	1500.645	1250.896	483.907	1932.334	930.994	278.684	137.959	5070.926
175.014	582.900	1468.129	1256.831	481.525	1923.418	921.429	277.474	139.284	5075.906
175.975	585.900	1476.738	1257.786	486.034	1932.767	929.810	277.665	139.093	5083.688
176.936	588.900	1481.922	1262.906	489.702	1940.702	931.708	279.385	139.309	5124.649
177.959	591.800	662.332	1138.369	466.076	1921.992	922.690	276.061	138.787	5101.697
178.927	594.800	1293.856	1255.124	486.492	1950.942	929.428	277.105	138.876	5074.607
179.956	597.700	642.450	1137.720	470.610	1928.577	934.115	279.398	139.704	5054.611
180.909	600.700	1490.570	1293.257	494.223	1971.651	921.506	276.978	139.322	5123.770
181.871	603.700	1502.275	1298.097	497.993	1986.222	934.828	279.894	139.513	5118.229
182.832	606.300	1473.656	1301.485	495.650	1995.532	951.296	282.340	139.386	5115.758
183.790	609.300	1493.449	1335.962	499.254	1995.023	949.984	282.582	139.284	5164.399
184.757	612.300	1502.568	1307.637	499.738	2028.392	956.696	282.072	139.781	5202.226
185.719	614.900	1528.347	1320.628	507.826	2034.837	963.409	284.874	140.583	5248.523
186.680	617.900	1515.113	1333.377	508.233	2039.779	970.401	286.848	140.570	5199.972
187.644	620.800	1505.141	1337.605	509.558	2026.915	958.416	283.677	139.590	5127.896
188.606	623.800	1513.088	1326.716	509.622	1995.851	956.696	284.645	140.787	5134.354
189.566	626.400	1509.051	1338.650	516.283	1984.935	958.390	284.721	140.316	5133.386
190.525	629.400	1490.838	1338.472	513.595	2016.687	955.716	282.671	140.392	5118.688
191.485	632.400	1500.530	1346.152	518.168	2011.032	953.270	283.015	139.373	5105.085
192.445	635.400	1496.735	1356.596	514.462	2019.031	949.984	280.646	141.093	5159.801
193.406	638.000	1519.011	1362.136	523.339	2028.991	953.283	282.786	140.316	5203.474
194.359	641.000	1670.231	1385.737	531.821	2026.711	964.033	284.276	139.564	5199.934
195.310	643.900	1554.520	1376.579	519.543	2066.347	964.822	284.620	139.895	5160.298
196.271	646.500	1523.519	1374.032	519.798	2073.084	975.075	284.543	140.252	5194.521
197.232	649.500	1512.502	1378.133	529.643	2084.649	983.558	289.065	141.169	5168.831
198.185	652.500	1667.110	1400.320	534.228	2075.836	979.138	287.396	140.991	5208.187
199.143	655.500	1509.089	1396.550	523.657	2059.214	976.897	286.976	142.468	5230.565
200.103	658.100	1554.214	1407.401	542.189	2067.582	991.149	290.567	141.717	5220.618
201.061	661.000	1540.561	1416.635	530.560	2056.756	971.331	284.276	141.704	5226.960
202.018	664.000	1551.056	1409.312	539.973	2082.930	986.678	288.517	141.602	5259.018
202.981	666.600	1526.844	1410.827	541.526	2080.293	983.787	293.178	142.252	5305.646
203.942	669.600	1541.491	1425.462	541.526	2095.462	988.652	290.593	141.984	5245.594
204.925	672.600	1184.450	1359.703	536.534	2082.892	981.138	286.021	142.073	5273.780
205.882	675.600	1532.104	1434.937	548.901	2076.893	979.202	287.740	140.863	5315.759
206.842	678.500	1540.981	1442.044	545.946	2099.423	983.354	288.148	141.271	5233.278
207.800	681.200	1546.037	1442.961	550.429	2087.655	986.258	289.141	140.812	5338.837
208.762	684.100	1527.060	1440.134	542.787	2071.773	981.609	291.077	140.838	5288.528
209.722	687.100	1565.282	1454.131	554.772	2072.295	984.245	287.078	141.564	5292.897
210.681	689.700	1542.968	1454.704	553.511	2028.774	965.345	288.581	141.768	5291.050
211.638	692.700	1535.785	1466.575	557.052	2010.778	959.995	285.753	140.634	5279.231
212.597	695.700	1676.637	1488.507	559.217	1962.430	936.688	281.232	140.596	5258.279
213.554	698.700	1537.963	1465.263	551.193	1944.370	935.197	281.015	139.679	5269.615
214.516	701.300	1541.121	1477.261	563.038	1911.090	922.193	281.130	139.577	5303.443
215.479	704.300	1529.238	1480.228	561.128	1863.251	913.507	278.188	139.131	5290.566
216.443	707.300	1536.421	1494.531	561.777	1834.047	901.675	275.704	139.335	5299.978
217.405	710.300	1533.084	1491.666	562.414	1800.232	879.654	273.437	138.851	5298.577
218.367	712.900	1555.819	1513.279	568.630	1773.383	877.871	272.966	140.035	5355.446
219.326	715.800	1545.617	1506.695	569.929	1741.440	866.586	272.596	138.380	5306.245
220.280	718.800	1701.155	1535.186	577.532	1717.980	865.236	270.036	138.494	5341.754
221.242	721.400	1577.535	1530.766	574.960	1677.146	842.667	266.839	137.883	5300.857
222.201	724.400	1546.114	1517.877	575.482	1652.400	842.884	266.738	137.208	5339.118
223.202	727.300	928.944	1436.504	564.885	1637.905	840.897	267.425	137.705	5362.030
224.161	730.300	1557.271	1528.257	579.061	1624.647	831.128	266.559	138.418	5358.744
225.122	733.200	1545.273	1540.446	579.914	1591.316	823.715	264.993	137.157	5320.280
226.081	735.900	1570.402	1552.240	586.817	1571.358	815.857	262.980	136.864	5329.094
227.044	738.800	1554.889	1546.139	581.392	1571.230	811.234	261.414	137.590	5343.830
228.006	741.800	1540.739	1562.786	589.212	1564.531	812.456	262.585	137.170	5305.812
228.965	744.800	1543.019	1563.868	589.199	1550.279	805.349	258.968	136.839	5336.468
229.927	747.400	1601.084	1574.733	590.906	1539.657	803.885	261.134	136.788	5322.649
230.884	750.300	1555.717	1582.311	595.593	1561.907	811.221	261.516	137.144	5404.506
231.845	753.300	1577.114	1589.902	598.917	1564.251	814.405	263.171	137.832	5456.446
232.807	756.300	1603.301	1598.282	598.407	1548.687	806.534	261.719	137.857	5373.926
233.766	758.900	1603.504	1596.295	605.884	1567.613	805.961	257.784	136.023	5394.941
234.727	761.900	1565.028	1588.068	612.265	1569.855	814.800	262.827	137.323	5468.227
235.692	764.900	1589.341	1611.223	610.915	1551.336	807.960	262.968	137.475	5453.364
236.679	767.800	1114.769	1540.841	601.553	1552.877	812.927	262.585	136.597	5488.338
237.651	770.800	1409.783	1592.220	600.700	1549.005	811.195	263.413	136.469	5446.435
238.634	773.800	1204.904	1565.550	603.324	1558.163	813.055	262.394	137.705	5433.864
239.620	776.400	1164.364	1562.862	600.000	1532.944	808.444	262.700	136.839	5446.155
240.607	779.400	1090.111	1560.073	606.189	1527.404	807.655	263.872	137.042	5482.237
241.589	782.300	1223.691	1579.776	606.240	1528.881	805.489	263.362	137.756	5470.914
242.577	785.300	1087.614	1557.156	609.106	1523.634	804.827	262.777	137.399	5476.684
243.554	788.300	1344.445	1607.580	611.131	1541.350	809.132	262.420	137.717	5539.729
244.549	791.200	1024.454	1573.905	612.112	1536.192	806.738	263.197	137.475	5604.189
245.509	794.200	1630.607	1671.823	632.006	1533.607	813.653	263.655	137.666	5627.917
246.490	797.200	1251.150	1635.333	625.905	1537.122	810.966	265.782	137.845	5660.433
247.478	800.100	1113.737	1603.517	618.849	1527.430	807.706	263.579	138.150	5705.138
248.488	803.100	866.803	1580.222	611.208	1536.167	807.884	262.853	137.781	5698.668
249.447	806.100	1643.752	1681.655	631.586	1532.932	805.464	262.917	136.877	5672.621
250.408	809.000	1599.340	1706.746	639.584	1532.741	809.769	263.872	138.341	5686.632
