Thu, Oct 12, 2017	11:18 AM
 Notes: GUA_0 L__101217
 waiting time: 50.000
 time(s)	 temp (K)	 MS1=1.933	 MS2=27.907	 MS3=78.871	 MS4=125.586	 MS5=17.701	 MS6=78.871	 MS7=109.505	 MS8=125.586
0.000	99.000	3218.893	9883.330	4.495	14.184	3169.967
1.447	99.000	3233.090	9940.173	4.507	15.668	3206.886
2.526	99.000	3224.325	9965.594	4.291	14.596	3264.738
3.621	99.000	3280.794	10026.602	4.453	14.935	3270.605
4.698	99.000	3319.430	10113.274	4.513	14.908	3256.501
5.790	98.900	3277.216	10092.615	4.804	14.931	3289.660
6.868	99.000	3274.054	10166.321	4.190	15.498	3274.150
7.984	98.900	3246.519	10066.149	4.244	15.383	3340.050
9.061	98.900	3261.760	10082.592	4.393	16.330	3345.450
10.167	98.900	3319.512	10128.252	4.632	16.077	3360.183
11.274	98.900	3303.225	10098.538	3.873	15.532	3332.874
12.368	98.900	3260.608	10121.298	4.240	15.380	3318.218
13.463	98.800	3231.590	10046.165	4.495	15.990	3371.656
14.563	98.800	3267.764	10084.731	4.575	15.699	3390.510
15.650	98.800	3266.344	10189.883	4.492	15.289	3434.956
16.728	99.000	3284.362	10661.450	4.371	15.731	3405.027
17.839	99.400	3226.988	12904.747	4.319	16.965	3419.680
18.942	100.500	3293.372	14225.414	4.792	16.858	3422.508
20.022	102.200	3327.718	13889.134	5.030	16.426	3468.274
21.101	105.100	3444.495	14615.799	4.445	15.714	3493.216
22.179	108.900	3471.813	14606.120	4.590	16.691	3536.233
23.270	113.500	3459.837	13923.726	4.457	16.934	3492.295
24.349	118.200	3410.101	13468.895	4.304	16.626	3508.806
25.427	122.900	3385.324	13172.976	4.738	16.255	3525.802
26.504	127.100	3400.539	13142.192	4.383	16.762	3565.162
27.603	131.500	3475.658	13174.963	4.179	16.827	3593.567
28.680	135.700	3413.574	13069.684	4.412	16.621	3604.214
29.758	139.900	3411.207	12936.983	5.044	16.718	3590.118
30.869	144.000	3350.366	12859.800	4.491	16.849	3632.188
31.990	148.100	3343.499	12670.804	4.573	17.813	3716.759
33.081	152.000	3370.620	12439.955	4.870	17.435	3739.784
34.154	155.900	3396.914	12251.609	4.924	18.144	3761.052
35.264	159.700	3374.030	11977.750	4.745	17.520	3710.037
36.342	163.400	3302.452	11892.530	5.231	17.972	3766.011
37.412	167.100	3318.665	11764.885	5.107	17.893	3718.709
38.491	170.300	3288.255	11621.244	4.453	18.401	3775.967
39.576	173.800	3328.272	11581.735	4.222	17.837	3810.148
40.669	177.300	3352.450	11608.291	4.992	18.147	3779.248
41.748	180.800	3311.613	11464.140	4.392	17.923	3764.152
42.826	184.200	3278.411	11431.190	4.814	18.221	3788.244
43.902	187.600	3276.199	11397.821	4.890	18.194	3817.581
44.982	190.700	3278.059	11426.300	4.586	18.572	3878.191
46.061	194.100	3294.687	11323.083	4.347	19.001	3890.812
47.141	197.400	3331.640	11413.194	4.688	19.425	3905.378
48.233	200.800	3334.314	11327.236	4.578	19.219	3866.242
49.311	204.100	3279.151	11243.544	4.293	19.853	3881.657
50.390	207.500	3240.654	11106.067	5.236	18.368	3925.403
51.471	210.500	3273.736	11085.167	4.830	19.326	3946.974
52.592	214.100	3301.937	11033.469	4.897	19.227	3999.566
53.694	217.400	3329.025	11099.419	4.961	19.712	3975.598
54.782	220.400	3299.236	11091.102	4.645	18.969	3968.569
55.860	223.700	3257.091	11092.082	5.086	19.015	3981.523
56.966	227.000	3247.270	11014.530	4.855	19.637	4028.214
58.047	230.300	3267.107	10906.411	4.849	20.200	4060.151
59.156	233.600	3307.775	11006.111	5.544	20.791	4052.942
60.232	236.900	3273.248	10973.735	4.700	20.373	4056.760
61.313	240.200	3310.232	10951.854	4.908	20.903	4056.462
62.408	243.500	3261.366	10948.568	5.142	20.697	4083.672
63.486	246.800	3291.073	10930.406	5.251	21.212	4134.736
64.566	249.800	3319.461	11052.192	5.558	20.559	4170.123
65.643	253.100	3383.808	11113.773	5.728	19.755	4198.299
66.723	256.400	3403.888	11075.334	5.702	20.964	4149.833
67.803	259.700	3350.930	11062.419	4.813	20.433	4158.698
68.883	263.000	3366.802	11039.914	5.064	22.089	4203.257
69.997	266.300	3367.348	11036.424	5.265	20.675	4251.601
71.111	269.600	3435.524	11012.212	6.037	21.225	4265.308
72.231	272.900	3439.351	11072.838	4.914	22.213	4233.574
73.341	276.200	3386.976	11053.045	5.284	21.146	4275.944
74.422	279.500	3406.242	11024.388	4.938	21.487	4273.435
75.502	282.800	3426.874	11061.693	4.905	21.430	4362.990
76.585	286.100	3453.305	11086.937	5.507	21.489	4359.090
77.665	289.100	3436.307	11073.283	5.447	22.049	4373.303
78.745	292.400	3443.010	11088.746	5.580	22.103	4354.425
79.825	295.700	3417.004	11055.185	5.197	22.178	4363.160
80.907	299.000	3377.704	11002.774	5.284	22.671	4385.029
81.987	302.300	3415.578	11054.497	5.523	22.463	4449.281
83.066	305.600	3409.258	11041.442	4.990	23.001	4482.194
84.145	308.600	3460.376	11114.957	5.909	23.190	4486.378
85.224	311.800	3435.215	11111.506	5.635	23.343	4485.345
86.334	315.100	3403.362	11145.741	5.310	21.423	4476.527
87.426	318.400	3400.200	11036.641	5.897	23.381	4497.262
88.507	321.700	3418.533	11088.886	6.266	23.105	4564.480
89.603	325.000	3477.852	11121.134	5.137	22.878	4567.866
90.682	328.300	3475.122	11091.127	5.273	23.465	4611.413
91.778	331.600	3481.610	11087.650	5.639	22.491	4587.991
92.865	334.900	3452.731	11096.158	5.489	24.000	4583.321
93.973	338.200	3420.872	10979.416	5.227	24.795	4651.513
95.052	341.500	3462.612	11038.577	5.800	23.877	4672.789
96.151	344.800	3519.678	11031.457	5.581	24.060	4709.103
97.224	347.800	3506.182	11153.727	6.178	23.608	4663.619
98.298	351.100	3529.840	11186.409	5.881	25.252	4700.183
99.378	354.400	3495.104	11188.930	6.153	24.568	4728.052
100.457	357.700	3484.631	11162.439	6.678	24.348	4732.364
101.537	361.000	3457.380	11153.358	5.694	25.148	4818.458
102.615	363.900	3528.758	11214.059	5.022	24.576	4837.526
103.694	367.200	3499.640	11200.151	5.982	25.238	4842.999
104.799	370.600	3505.381	11213.919	6.308	25.470	4836.298
105.879	373.800	3428.174	11208.990	6.221	24.570	4829.964
106.987	377.100	3399.245	11240.411	5.677	24.765	4917.484
108.108	380.500	3452.672	11294.248	5.901	24.793	4896.763
109.182	383.800	3402.690	11268.788	6.527	24.549	4964.977
110.262	387.000	3426.971	11398.432	5.990	25.712	4895.059
111.380	390.300	3354.886	11331.719	6.159	26.759	4925.511
112.459	393.600	3356.460	11495.331	5.843	27.131	4977.291
113.574	396.900	3372.893	11515.467	6.774	26.182	5031.196
114.683	400.200	3390.544	11563.828	6.280	27.258	5056.053
115.762	403.500	3410.548	11617.983	6.133	27.230	5031.679
116.845	406.800	3318.167	11649.200	5.689	25.961	5041.598
117.924	409.800	3345.364	11657.148	5.675	27.521	5059.422
119.003	413.100	3315.927	11619.359	5.627	27.345	5132.949
120.083	416.400	3373.192	11587.467	5.914	29.053	5173.330
121.162	419.700	3404.780	11675.985	6.465	28.179	5177.575
122.240	422.900	3360.611	11625.612	6.962	28.457	5158.026
123.318	426.200	3358.894	11650.996	6.562	29.105	5149.247
124.400	429.200	3315.404	11611.602	6.293	27.497	5167.191
125.488	432.500	3318.454	11525.275	6.357	28.098	5272.808
126.567	435.800	3356.939	11537.654	6.369	27.856	5280.928
127.649	439.100	3363.813	11596.815	7.027	29.655	5303.973
128.728	442.400	3398.845	11627.128	7.419	28.682	5254.813
129.843	445.700	3337.742	11685.002	6.054	28.024	5302.703
130.923	449.000	3338.646	11652.830	7.008	28.522	5296.824
132.003	452.300	3328.672	11650.448	5.979	30.342	5389.038
133.083	455.300	3345.794	11678.316	6.637	29.853	5456.300
134.161	458.600	3384.437	11777.482	6.449	29.519	5447.044
135.255	461.900	3375.346	11765.242	6.481	29.164	5427.429
136.337	465.200	3326.576	11787.480	6.993	31.863	5409.168
137.444	468.500	3296.176	11691.753	6.577	30.757	5450.477
138.525	471.800	3312.159	11710.934	6.863	31.659	5503.363
139.608	475.100	3381.679	11819.232	6.954	31.595	5553.879
140.688	478.000	3351.525	11769.470	7.254	29.970	5588.313
141.767	481.300	3386.182	11756.938	6.667	31.055	5527.938
142.846	484.600	3296.021	11667.999	5.914	31.049	5544.906
143.926	487.900	3328.569	11539.310	6.603	30.742	5576.417
145.005	491.200	3319.560	11479.105	7.319	32.189	5657.562
146.087	494.500	3362.727	11445.506	6.604	31.506	5739.323
147.167	497.500	3394.754	11490.020	6.096	33.289	5720.624
148.246	500.800	3370.518	11386.536	7.289	31.222	5666.227
149.361	504.100	3340.271	11363.993	6.509	31.855	5682.103
150.440	507.400	3315.780	11279.856	6.464	33.101	5719.957
151.554	510.700	3336.352	11277.283	6.848	32.222	5822.004
152.667	514.000	3357.430	11258.395	7.610	33.863	5818.621
153.747	517.300	3349.362	11229.649	6.714	34.014	5798.443
154.824	520.600	3339.972	11265.706	7.249	33.667	5795.009
155.957	523.900	3309.091	11159.446	6.040	33.554	5891.233
157.058	527.200	3362.187	11171.813	7.231	33.703	5921.883
158.135	530.500	3365.836	11196.318	7.702	33.969	5976.217
159.206	533.800	3371.083	11224.223	7.533	34.516	5959.731
160.283	537.100	3360.132	11196.127	7.406	34.521	5922.899
161.363	540.000	3285.709	11070.189	7.339	35.661	5969.300
162.442	543.300	3316.699	11069.093	7.683	34.705	5980.550
163.525	546.600	3304.134	11048.651	7.150	34.944	6033.647
164.605	549.900	3363.356	11103.660	7.446	35.186	6120.849
165.685	553.200	3365.182	11121.045	7.779	35.531	6102.368
166.765	556.500	3347.746	11063.464	6.417	35.862	6093.512
167.842	559.500	3315.752	11085.727	8.477	35.934	6087.151
168.927	562.800	3308.463	11065.170	7.656	35.503	6152.805
170.005	566.100	3310.816	11114.155	8.201	37.236	6225.014
171.087	569.400	3340.532	11046.741	7.346	36.446	6202.793
172.167	572.700	3346.517	11086.988	7.869	36.182	6274.377
173.249	576.000	3366.916	11096.553	8.540	38.013	6232.617
174.325	579.000	3291.571	11116.371	7.468	36.091	6259.283
175.404	582.200	3317.239	11092.910	6.801	36.413	6300.027
176.483	585.500	3298.200	11123.656	7.477	37.622	6361.878
177.583	588.800	3360.550	11122.319	7.971	36.317	6399.840
178.664	592.100	3376.295	11116.002	7.571	36.496	6412.965
179.743	595.400	3334.344	11165.686	7.454	37.711	6377.198
180.822	598.400	3316.611	11181.314	7.873	37.535	6420.525
181.904	601.700	3303.483	11187.733	7.880	38.135	6454.626
182.983	605.000	3323.949	11098.043	8.566	39.809	6547.377
184.062	608.300	3334.554	11164.591	8.313	38.776	6568.532
185.143	611.600	3355.294	11152.899	8.004	38.357	6629.011
186.224	614.500	3373.378	11180.028	7.775	39.852	6571.569
187.303	617.800	3338.269	11128.063	7.715	41.061	6547.956
188.384	621.100	3283.496	11061.273	8.492	40.443	6613.290
189.464	624.400	3305.077	11082.059	8.010	39.484	6666.399
190.544	627.700	3282.504	11104.348	8.458	39.037	6730.231
191.625	631.000	3372.168	11184.587	8.931	40.821	6737.406
192.702	634.000	3329.981	11176.360	7.571	40.625	6719.097
193.786	637.300	3341.133	11135.514	8.835	40.899	6740.746
194.867	640.600	3311.892	11116.817	8.913	40.642	6739.699
195.947	643.900	3305.387	11101.202	8.644	40.722	6831.730
197.027	647.200	3309.160	11167.100	9.090	41.862	6897.642
198.108	650.500	3366.540	11204.392	8.738	39.831	6906.120
199.243	653.800	3364.793	11183.492	8.086	41.490	6871.643
200.324	657.100	3320.439	11133.336	8.406	40.577	6892.877
201.405	660.400	3308.959	11166.603	8.693	43.378	6916.290
202.485	663.400	3331.514	11166.820	9.129	43.682	6989.994
203.565	666.700	3341.215	11117.059	8.292	43.718	7064.297
204.684	670.000	3398.581	11279.487	9.344	42.216	7088.016
205.764	673.300	3369.830	11189.555	9.129	42.834	7020.667
206.844	676.600	3320.488	11203.858	8.742	45.727	7076.598
207.923	679.900	3323.113	11229.814	9.159	44.225	7080.657
209.002	683.200	3305.383	11163.559	8.873	44.547	7209.231
210.120	686.500	3381.342	11182.244	9.047	43.147	7215.208
211.200	689.800	3363.264	11203.323	8.631	43.627	7197.972
212.280	692.700	3372.442	11235.062	9.727	44.248	7160.358
213.360	696.000	3326.018	11194.776	9.502	42.973	7191.968
214.440	699.300	3321.200	11191.516	8.304	43.311	7262.629
215.521	702.600	3326.294	11219.867	8.626	45.711	7294.796
216.602	705.900	3367.295	11186.536	9.577	44.854	7405.664
217.683	709.200	3376.462	11326.153	9.062	47.556	7380.440
218.758	712.100	3374.365	11247.378	8.749	45.973	7322.519
219.838	715.400	3310.613	11228.299	9.259	45.862	7364.336
220.937	718.700	3328.644	11185.504	9.251	46.445	7364.924
222.017	722.000	3315.788	11147.652	9.490	45.734	7530.708
223.098	725.300	3397.376	11361.700	10.357	46.796	7518.122
224.178	728.600	3352.967	11353.116	10.038	46.780	7553.835
225.269	731.500	3399.637	11311.277	9.008	46.818	7499.822
226.348	734.900	3345.601	11342.163	10.344	46.424	7536.318
227.426	738.100	3334.512	11346.468	9.973	48.006	7562.176
228.505	741.400	3363.756	11319.403	9.165	49.361	7644.549
229.583	744.700	3393.439	11265.922	9.811	48.160	7671.646
230.664	748.000	3378.040	11305.405	9.313	47.637	7698.852
231.744	751.000	3407.797	11354.186	9.981	49.551	7622.312
232.825	754.300	3338.427	11285.180	10.691	49.036	7657.820
233.906	757.600	3368.933	11366.960	9.717	49.956	7660.345
234.985	760.900	3349.404	11355.893	8.972	47.753	7799.279
236.066	764.200	3373.991	11366.375	11.420	51.664	7863.314
237.167	767.500	3427.140	11368.234	9.788	48.377	7816.127
238.247	770.400	3381.732	11316.027	10.296	50.425	7811.329
239.329	773.700	3373.692	11341.335	10.203	49.211	7773.320
240.409	777.100	3341.538	11253.109	10.170	50.388	7839.935
241.487	780.300	3381.756	11356.147	9.680	51.050	7981.112
242.566	783.600	3389.359	11360.771	11.025	51.510	7974.329
243.645	786.900	3397.476	11389.058	10.115	51.734	8007.754
244.724	789.900	3414.828	11450.690	10.649	50.969	7912.132
245.800	793.200	3397.384	11363.573	9.657	51.195	7972.564
246.881	796.500	3363.781	11358.796	9.822	51.877	7977.640
