Wed, Oct 04, 2017	12:49 PM
 Notes: GUA_1.1E09_30sec_0.025L_100417
 waiting time: 50.000
 time(s)	 temp (K)	 MS1=1.994	 MS2=17.798	 MS3=26.922	 MS4=27.907	 MS5=28.936	 MS6=30.937	 MS7=78.871	 MS8=125.586
0.000	98.200	1928.105	942.164	304.858	6522.448	545.347	155.701	108.793	124.459
1.173	98.200	1784.502	919.633	297.369	6585.073	542.571	155.001	108.360	125.949
2.126	98.200	1801.429	922.474	301.712	6586.016	542.380	154.962	108.207	125.822
3.080	98.200	1788.552	925.250	302.552	6565.014	546.112	154.237	107.838	125.019
4.037	98.200	1826.418	931.631	301.075	6600.548	550.633	155.179	109.188	125.363
4.989	98.200	1797.315	936.649	301.712	6619.194	544.048	156.236	108.818	125.210
5.944	98.200	1820.342	938.509	302.247	6616.469	549.296	157.255	107.927	125.465
6.916	98.200	1799.251	943.260	303.852	6590.359	544.316	158.134	108.067	125.605
7.870	98.300	1799.773	941.438	299.101	6593.849	541.437	158.529	108.818	125.121
8.831	98.300	1807.147	947.170	303.304	6613.196	541.119	157.153	107.583	125.159
9.788	98.400	1778.885	939.910	307.163	6890.672	549.359	158.682	108.882	124.981
10.745	98.800	1780.808	968.172	306.093	7587.368	564.962	157.204	107.812	125.006
11.716	99.600	1806.409	964.122	309.303	8385.765	581.099	156.809	108.920	126.624
12.675	101.100	1795.379	966.071	310.780	7918.312	574.323	158.096	109.570	125.554
13.637	103.000	1807.402	968.172	316.155	8245.983	577.851	159.713	108.182	125.707
14.594	106.000	1819.935	979.138	317.734	8360.509	587.976	158.287	107.748	125.414
15.577	109.700	1824.482	980.628	315.646	8059.037	581.748	154.848	107.774	125.656
16.532	113.800	1845.650	983.023	311.162	7641.842	571.941	156.325	108.232	125.019
17.517	118.000	1834.798	979.138	308.398	7435.906	568.732	157.115	108.143	125.452
18.479	121.800	1819.222	998.090	310.984	7321.419	567.649	159.076	107.124	125.949
19.453	125.900	1810.293	1059.773	311.519	7267.798	566.630	160.898	108.984	125.503
20.407	129.900	1813.070	1166.797	312.907	7263.913	564.083	159.662	107.952	126.127
21.363	133.800	1834.060	1405.911	317.174	7248.171	569.661	159.586	108.997	124.484
22.318	137.200	1827.780	1806.740	322.778	7197.391	563.459	160.235	108.436	126.407
23.285	140.900	1825.399	2305.308	334.636	7123.914	564.083	165.343	110.487	126.305
24.262	144.600	1815.273	2832.266	347.041	7072.727	565.051	164.286	109.888	125.720
25.220	148.300	1821.399	3224.867	349.142	7012.636	571.228	167.966	108.487	126.382
26.174	151.400	1829.487	3535.012	354.632	6958.315	564.949	169.393	109.149	124.433
27.131	154.900	1847.178	3593.358	353.231	6900.008	567.407	167.202	108.615	125.630
28.082	158.300	1822.227	3484.398	349.002	6843.534	566.210	169.533	107.914	125.006
29.040	161.300	1871.148	3232.534	338.711	6798.842	568.566	166.591	109.175	126.267
29.999	164.600	1830.519	2966.648	340.303	6785.927	582.092	170.323	109.048	127.605
30.957	167.800	1851.241	2698.342	340.074	6823.067	596.879	172.692	109.710	126.433
31.916	171.000	1820.839	2453.446	341.513	6807.528	614.519	176.181	110.372	128.331
32.874	173.900	1846.605	2241.499	340.915	6842.630	620.773	174.284	110.423	130.139
33.859	177.000	1823.144	2049.114	343.144	6820.812	610.494	176.831	110.487	134.826
34.820	180.200	1819.413	1917.802	362.770	6835.052	610.125	172.781	111.366	143.665
35.793	183.300	1810.128	1814.496	390.447	6877.324	621.499	175.990	110.703	161.178
36.752	186.300	1821.654	1741.402	448.398	6944.114	645.787	180.448	113.034	195.146
37.709	189.000	1808.587	1684.992	559.727	7082.941	686.773	190.128	114.703	257.733
38.657	192.100	1834.505	1683.833	729.045	7226.175	746.392	205.450	118.294	352.938
39.615	195.100	1827.768	1672.294	984.691	7377.815	825.002	226.108	123.924	468.368
40.565	197.800	1861.328	1659.392	1219.602	7536.308	910.654	244.729	127.783	551.537
41.534	200.800	1876.166	1648.770	1343.553	7559.934	930.383	247.556	126.942	510.271
42.484	203.800	1832.289	1557.819	1003.860	7042.885	787.977	206.634	116.498	314.041
43.433	206.500	1798.270	1515.572	794.511	6999.339	746.430	205.068	118.332	314.295
44.390	209.500	1824.393	1487.068	810.049	7055.622	770.260	205.080	119.326	325.071
45.350	212.500	1821.259	1476.687	835.853	7104.237	781.494	211.652	118.944	339.132
46.338	215.500	1823.870	1452.361	891.346	7197.340	804.929	219.078	121.313	366.298
47.290	218.100	1796.538	1461.531	951.156	7229.079	824.454	221.625	121.962	388.855
48.243	221.100	1803.288	1452.947	1005.846	7314.082	841.916	227.764	121.822	411.806
49.203	224.100	1802.779	1463.110	1060.486	7321.852	870.827	231.483	121.466	432.477
50.198	227.100	1817.922	1446.719	1113.635	7356.864	883.666	236.132	124.433	446.360
51.175	230.000	1804.944	1412.330	1151.169	7362.150	883.844	232.413	124.650	439.520
52.135	232.700	1802.193	1400.345	1085.946	7262.665	862.485	226.274	121.682	382.805
53.091	235.600	1775.026	1370.300	950.443	7170.670	811.909	219.052	119.784	330.624
54.079	238.600	1778.923	1356.239	807.298	7039.192	771.891	208.583	119.466	288.084
55.039	241.600	1798.448	1343.719	714.908	7016.381	747.080	200.597	115.632	260.548
55.998	244.200	1810.332	1323.481	649.341	6977.904	722.359	198.598	115.530	241.405
56.956	247.200	1811.643	1313.661	600.929	6996.728	705.661	195.796	114.384	218.899
57.941	250.200	1818.929	1318.208	555.180	6963.983	688.976	191.249	113.225	204.698
58.901	253.100	1809.606	1299.103	533.897	6960.340	685.576	191.707	114.410	194.713
59.860	256.100	1826.341	1300.033	506.730	6957.997	675.170	189.262	112.932	188.357
60.817	258.800	1817.196	1300.950	498.337	6980.884	671.133	188.383	112.614	186.294
61.785	261.700	1823.998	1302.606	490.058	7000.396	665.681	188.663	112.869	182.269
62.742	264.700	1813.885	1297.027	476.634	7003.440	664.777	186.791	112.194	178.601
63.699	267.300	1840.211	1301.510	471.247	7026.901	658.829	185.543	113.505	173.125
64.656	270.300	1841.408	1301.816	466.190	7041.395	660.205	186.256	112.601	174.258
65.646	273.200	1840.046	1293.932	466.955	7031.919	658.765	183.288	112.716	171.494
66.644	276.200	1856.730	1296.772	470.559	7008.267	657.339	184.689	112.728	172.653
67.622	279.200	1881.987	1304.147	461.109	7033.282	659.453	183.900	112.830	170.284
68.577	282.200	1883.643	1299.740	454.626	7021.870	658.664	187.631	112.563	170.539
69.532	285.200	1955.260	1291.143	454.269	7004.357	659.619	188.803	111.862	170.081
70.504	287.800	1966.964	1308.541	449.658	7042.618	661.236	186.345	113.251	170.717
71.462	290.800	1995.545	1307.446	454.154	7043.305	666.127	191.631	112.550	170.883
72.418	293.700	2007.301	1322.016	447.557	7036.249	663.847	189.848	112.639	171.036
73.373	296.400	2045.701	1316.259	451.072	7075.465	665.350	190.701	113.709	171.049
74.332	299.300	2067.939	1328.563	450.550	7040.567	669.082	191.516	112.894	173.201
75.293	302.300	2102.149	1344.114	457.746	7062.601	665.567	194.293	113.212	171.953
76.252	305.300	2151.834	1328.079	455.199	7074.535	667.210	196.560	113.977	168.399
77.213	307.900	2201.111	1342.522	461.058	7069.071	674.177	193.452	114.308	170.858
78.171	310.900	2266.538	1344.636	461.109	7068.192	678.596	196.853	113.913	166.311
79.131	313.800	2319.000	1351.017	456.918	7049.266	680.494	196.267	114.550	171.405
80.091	316.500	2383.102	1360.811	459.682	7067.314	684.570	202.075	114.142	169.890
81.047	319.500	2478.728	1369.752	453.072	7055.698	689.435	202.660	114.193	169.571
82.019	322.400	2519.344	1391.710	451.072	7111.547	692.326	204.405	113.327	167.865
82.978	325.400	2593.967	1385.851	452.957	7062.181	696.758	208.073	112.779	170.692
83.932	328.000	2614.587	1388.411	445.430	7105.892	696.338	210.506	114.066	168.310
84.890	331.000	2699.680	1380.642	449.786	7079.439	697.446	207.602	113.786	168.056
85.864	333.900	2675.009	1397.123	445.315	7091.717	703.751	213.525	113.340	164.095
86.819	336.900	2690.497	1403.873	442.717	7099.027	708.412	212.277	114.945	164.324
87.783	339.600	2672.232	1409.885	440.042	7096.875	713.889	211.716	114.690	162.681
88.740	342.500	2693.757	1430.900	432.668	7119.291	709.941	217.753	115.199	160.528
89.702	345.500	2677.977	1422.825	430.044	7077.630	717.455	213.741	115.989	159.344
90.660	348.500	2716.492	1443.038	427.701	7081.897	713.277	214.034	115.607	157.077
91.620	351.100	2665.520	1424.506	427.242	7078.331	710.144	214.811	114.448	155.408
92.580	354.100	2724.796	1447.063	424.759	7045.802	712.641	212.404	116.409	155.663
93.537	357.000	2757.490	1451.508	422.071	7111.547	716.780	214.391	115.429	155.497
94.497	359.700	2798.374	1450.820	419.435	7116.706	710.908	215.028	116.116	155.739
95.455	362.600	2767.794	1452.552	418.416	7121.151	713.991	216.238	117.046	154.886
96.413	365.600	2836.354	1465.454	420.326	7167.040	718.334	218.314	117.606	154.784
97.369	368.600	2851.192	1463.938	415.194	7181.840	719.098	213.321	117.899	155.829
98.331	371.200	2878.588	1467.199	415.028	7194.576	718.181	215.410	119.224	154.402
99.291	374.200	2864.158	1478.076	421.715	7193.188	711.596	212.493	118.715	153.167
100.251	377.200	2871.711	1480.165	423.638	7243.675	715.086	212.926	118.562	154.096
101.209	379.800	2900.406	1476.153	422.326	7264.346	713.927	211.551	120.090	153.027
102.169	382.800	2944.041	1494.468	420.441	7373.905	715.354	212.238	120.752	151.791
103.129	385.700	2961.082	1491.729	419.358	7424.011	708.973	212.684	120.803	153.905
104.090	388.700	3017.721	1497.091	413.856	7556.966	715.137	211.245	120.383	152.288
105.047	391.400	3096.127	1490.978	411.003	7672.792	715.901	208.876	120.969	152.224
106.009	394.300	3149.149	1512.515	411.691	7843.422	714.908	205.501	120.561	151.511
106.965	397.300	3181.321	1524.398	413.653	8032.100	723.174	207.895	122.268	152.250
107.924	400.200	3242.265	1523.252	410.405	8279.709	721.594	208.405	120.969	151.129
108.880	402.900	3243.653	1517.724	411.411	8552.218	726.995	207.055	120.765	150.416
109.841	405.900	3284.741	1514.413	409.080	8876.896	726.460	203.450	120.676	152.785
110.800	408.800	3263.076	1524.080	412.786	9226.256	736.432	203.361	119.975	153.103
111.761	411.400	3263.497	1529.238	405.399	9603.676	742.418	202.062	118.867	151.753
112.716	414.400	3214.907	1527.748	414.213	9933.015	752.073	198.547	117.925	151.396
113.673	417.400	3221.224	1528.054	412.277	10266.378	743.794	197.056	118.129	151.524
114.632	420.400	3155.759	1537.466	409.488	10477.396	759.880	196.050	117.530	150.441
115.594	423.000	3113.359	1527.404	411.576	10686.439	762.122	194.713	117.199	150.467
116.553	426.000	3092.816	1528.792	400.267	10793.693	754.276	195.783	116.027	149.409
117.514	428.900	3052.632	1530.117	399.324	10784.319	757.804	193.618	116.473	148.951
118.496	431.900	2979.079	1540.191	401.120	10771.761	757.358	194.318	113.977	150.887
119.453	434.500	2940.895	1533.900	400.865	10801.169	745.679	193.465	113.862	149.664
120.411	437.500	2841.220	1547.591	399.349	10699.978	746.214	192.828	114.461	150.721
121.372	440.400	2845.996	1552.380	400.954	10659.183	744.533	190.332	115.569	148.582
122.330	443.100	2763.387	1564.225	404.482	10577.212	737.502	191.083	114.970	149.257
123.289	446.100	2714.377	1563.041	407.921	10576.116	732.930	190.625	115.301	148.632
124.248	449.000	2704.927	1564.187	402.788	10515.975	737.757	189.466	114.499	147.372
125.209	452.000	2665.062	1574.669	403.361	10536.671	730.752	188.434	115.225	148.836
126.167	454.600	2649.842	1590.857	408.825	10471.206	729.720	184.970	115.072	149.435
127.116	457.600	2649.918	1581.942	402.788	10381.198	732.790	189.695	114.244	149.371
128.075	460.600	2647.180	1601.008	405.310	10382.166	720.575	182.804	114.690	147.473
129.036	463.200	2654.847	1608.230	402.406	10318.865	717.888	183.785	115.263	149.053
129.994	466.200	2658.286	1609.159	403.234	10292.144	722.384	185.352	114.104	148.913
130.957	469.200	2631.361	1622.303	398.445	10221.559	723.836	185.543	115.059	148.900
131.912	472.100	2643.767	1624.761	400.152	10116.483	724.626	187.491	114.894	148.913
132.874	474.800	2641.117	1630.977	398.522	10041.096	705.406	186.536	114.142	147.715
133.835	477.700	2619.669	1645.203	403.616	9951.648	708.068	187.033	113.556	146.888
134.794	480.700	2587.981	1649.241	406.788	9859.334	699.560	184.345	114.091	148.773
135.752	483.700	2613.759	1660.029	404.164	9696.601	691.562	186.778	115.238	146.951
136.713	486.300	2563.820	1673.797	406.609	9581.833	700.694	184.587	115.734	146.786
137.695	489.300	2573.805	1668.218	401.744	9405.535	688.123	184.358	114.410	145.665
138.648	492.200	2588.567	1694.252	405.310	9226.613	689.002	184.142	113.493	146.009
139.600	494.900	2574.990	1689.246	404.266	9026.893	685.054	180.881	114.537	145.907
140.559	497.800	2616.230	1707.115	402.444	8857.574	677.514	180.932	114.078	146.187
141.516	500.800	2617.873	1704.441	399.770	8702.788	670.177	182.015	114.766	147.181
142.477	503.800	2628.024	1712.719	399.706	8585.116	663.147	182.435	115.314	148.263
143.436	506.400	2612.537	1728.423	403.693	8379.423	662.319	185.275	114.996	146.862
144.394	509.400	2638.404	1753.221	406.227	8226.496	661.567	183.594	114.843	147.970
145.345	512.400	2619.682	1754.813	399.018	8151.045	649.022	183.874	115.097	147.461
146.300	515.000	2585.803	1743.733	409.182	7954.191	647.430	182.117	114.410	147.754
147.261	518.000	2572.251	1759.615	408.991	7895.081	654.766	182.601	114.002	145.499
148.210	521.000	2570.252	1763.436	406.265	7788.349	641.087	181.543	115.938	147.104
149.167	523.600	2592.413	1780.554	407.131	7752.866	644.577	179.811	114.410	146.149
150.129	526.600	2582.899	1794.793	407.233	7683.108	644.195	183.161	115.874	148.034
151.089	529.500	2561.642	1790.565	406.673	7665.838	637.980	181.913	116.002	147.219
152.048	532.500	2580.670	1803.989	402.776	7610.625	637.356	182.371	115.492	147.372
153.004	535.100	2598.896	1801.492	401.668	7590.552	639.406	184.702	114.588	146.939
153.959	538.100	2627.145	1824.252	407.806	7583.738	634.630	181.276	115.301	147.499
154.920	541.000	2593.088	1834.798	405.348	7562.596	635.853	184.842	116.626	146.977
155.873	543.700	2593.610	1830.697	405.527	7530.475	639.623	186.613	115.441	147.524
156.830	546.700	2548.078	1838.352	410.188	7545.058	631.688	184.129	116.027	146.888
157.792	549.600	2525.445	1844.185	409.335	7517.560	629.879	181.442	115.136	149.040
158.749	552.600	2510.136	1854.209	406.826	7490.813	636.731	184.244	115.823	148.123
159.706	555.300	2506.378	1867.225	410.392	7516.273	628.223	184.358	117.314	149.588
160.664	558.200	2509.779	1864.945	409.029	7479.592	635.458	180.665	116.957	148.824
161.623	561.100	2516.275	1863.901	414.748	7486.394	634.401	183.276	115.734	147.779
162.605	564.100	2477.518	1895.933	411.182	7506.275	633.968	184.600	116.091	146.238
163.565	566.700	2522.261	1897.423	401.744	7414.471	635.585	181.913	116.753	148.607
164.524	569.700	2519.382	1906.797	413.844	7453.979	638.120	182.995	115.556	147.805
165.484	572.700	2508.696	1899.054	411.933	7482.598	635.012	185.670	116.868	146.888
166.442	575.700	2499.832	1914.172	410.290	7457.074	630.401	185.657	117.810	150.658
167.401	578.300	2494.585	1922.960	405.998	7471.403	635.394	185.708	115.785	147.270
168.362	581.300	2498.584	1931.137	409.730	7481.809	629.268	184.791	116.180	148.543
169.320	584.200	2478.715	1940.982	412.315	7465.430	633.675	184.842	115.721	147.423
170.277	586.900	2458.069	1940.065	417.601	7453.126	629.510	184.460	116.626	146.697
171.234	589.800	2451.421	1948.153	418.378	7433.257	641.189	183.887	117.428	147.372
172.191	592.800	2434.099	1948.000	411.640	7440.619	631.879	182.868	117.785	147.639
173.147	595.500	2450.631	1963.678	415.665	7481.885	641.966	186.307	118.282	149.104
174.109	598.400	2443.639	1970.671	416.595	7525.762	633.076	186.039	117.314	148.441
175.073	601.400	2471.901	1980.134	417.282	7447.637	636.821	185.746	117.505	148.824
176.031	604.400	2515.969	1974.326	409.933	7448.707	637.534	184.396	117.785	147.614
176.994	607.000	2539.519	1996.335	413.742	7460.157	635.330	184.218	117.161	149.448
177.952	610.000	2534.424	1997.430	414.901	7446.096	639.916	188.561	118.065	149.486
178.914	612.900	2532.335	1994.208	421.333	7415.375	638.565	187.237	118.141	149.804
179.866	615.900	2528.030	1996.946	419.269	7459.966	638.400	188.956	117.530	150.326
180.820	618.600	2503.882	1997.812	422.886	7450.795	638.782	186.740	117.734	150.670
181.774	621.500	2512.441	2017.872	423.523	7427.806	636.311	187.389	118.664	149.588
182.732	624.500	2494.546	2029.055	424.962	7436.951	638.209	189.899	118.231	150.161
183.712	627.400	2504.927	2033.003	423.753	7496.812	639.151	186.778	117.734	149.932
184.668	630.100	2527.203	2052.693	425.612	7427.997	636.260	187.644	117.364	148.518
185.624	633.000	2514.008	2040.556	425.294	7431.945	637.419	186.816	117.606	148.454
186.580	636.000	2534.615	2047.535	424.593	7531.493	638.387	187.007	118.205	150.021
187.539	638.600	2557.375	2052.655	423.511	7509.459	642.705	184.002	117.976	150.543
188.500	641.600	2596.922	2064.971	422.848	7478.000	644.679	188.192	118.040	152.568
189.454	644.600	2597.037	2070.155	425.434	7533.480	639.750	189.045	117.861	151.638
190.408	647.200	2607.964	2081.694	426.682	7512.835	645.023	190.790	115.951	153.039
191.367	650.200	2591.636	2082.306	421.575	7493.017	647.494	187.975	118.040	153.052
192.326	653.100	2618.383	2103.830	433.394	7496.392	637.139	186.332	118.129	153.523
193.284	656.100	2551.580	2101.474	438.132	7530.143	645.456	186.307	118.090	152.695
194.244	658.800	2570.736	2098.939	434.604	7560.864	639.941	190.701	117.810	152.504
195.202	661.700	2554.331	2115.369	435.738	7515.484	639.330	186.638	119.568	153.039
196.163	664.700	2567.119	2119.942	438.463	7578.071	646.997	187.097	118.167	152.313
197.120	667.400	2552.650	2120.923	438.463	7576.784	638.273	187.122	117.887	153.829
198.081	670.300	2590.324	2145.466	434.286	7540.842	651.493	185.301	117.326	155.383
199.035	673.300	2613.912	2148.242	440.030	7561.590	643.520	190.548	116.868	153.778
199.995	676.200	2635.157	2147.147	434.820	7564.825	648.678	188.918	117.696	155.981
200.951	678.900	2581.141	2157.170	438.005	7593.686	649.290	188.791	118.447	155.001
201.911	681.900	2611.594	2175.473	440.667	7533.531	649.341	189.007	118.014	157.548
202.869	684.800	2602.271	2174.301	439.584	7591.520	643.966	190.676	118.804	156.045
203.830	687.500	2623.108	2192.221	442.424	7587.317	646.691	189.249	118.231	155.816
204.786	690.400	2523.496	2186.490	445.939	7573.358	643.966	190.879	117.556	156.898
205.744	693.400	2499.539	2181.293	449.391	7549.949	651.429	190.013	118.116	155.574
206.698	696.000	2492.216	2195.736	447.175	7521.699	649.022	186.893	117.568	156.720
207.655	699.000	2464.106	2209.836	451.365	7505.244	648.513	187.772	117.747	156.440
208.605	702.000	2435.538	2195.991	451.900	7536.754	645.265	188.370	118.065	154.835
209.557	704.600	2506.098	2211.721	450.002	7507.511	644.042	188.854	116.855	157.854
210.530	707.500	2464.463	2230.800	453.492	7547.440	654.231	189.606	117.263	156.185
211.472	710.500	2434.927	2237.830	455.326	7495.666	654.932	187.733	118.243	158.198
212.417	713.100	2417.262	2240.938	454.740	7539.467	662.344	191.873	116.804	159.662
213.357	716.100	2393.330	2238.697	451.569	7514.452	646.144	186.422	116.957	158.338
214.317	719.100	2321.751	2257.788	456.855	7538.346	648.283	186.765	117.887	158.427
215.274	721.700	2291.247	2263.049	457.861	7478.930	639.763	186.664	117.339	161.089
216.232	724.700	2268.525	2280.956	466.394	7503.868	649.379	188.230	118.154	159.382
217.193	727.600	2248.771	2281.300	468.407	7518.044	648.143	188.357	118.715	159.497
218.151	730.600	2232.494	2281.007	459.198	7551.222	643.176	187.581	118.409	162.579
219.114	733.200	2215.618	2296.762	461.975	7520.184	651.862	187.988	118.001	161.051
220.075	736.200	2229.373	2304.302	465.592	7560.927	648.678	186.931	117.288	161.420
221.037	739.200	2255.725	2299.297	461.032	7516.617	652.270	187.491	117.798	163.037
221.996	742.100	2215.936	2322.464	463.388	7561.679	662.727	187.733	118.676	161.815
222.955	744.800	2225.947	2327.877	466.292	7557.794	650.066	189.720	119.058	160.821
223.915	747.700	2211.428	2343.607	469.922	7546.892	661.071	190.688	117.798	162.999
224.876	750.700	2201.099	2336.691	469.986	7571.027	656.269	188.154	118.001	164.464
225.835	753.300	2176.988	2361.654	473.934	7564.978	661.669	190.293	119.441	164.133
226.797	756.300	2160.520	2361.794	482.608	7576.555	655.467	189.440	117.517	166.960
227.752	759.300	2137.238	2373.308	474.329	7564.787	654.180	190.192	117.848	165.254
228.709	762.200	2177.179	2377.193	477.297	7591.431	656.664	190.026	117.772	165.878
229.666	764.900	2166.226	2378.836	484.607	7586.540	661.262	190.204	118.906	164.540
230.625	767.800	2162.291	2405.684	487.091	7619.260	661.402	189.211	117.670	167.075
231.584	770.800	2158.380	2408.002	482.799	7615.312	667.414	191.440	119.262	167.202
232.543	773.400	2196.704	2421.745	482.557	7669.009	665.745	190.968	118.524	166.540
233.500	776.400	2195.176	2442.454	486.734	7658.845	671.285	192.904	118.982	169.074
234.460	779.400	2225.922	2443.779	484.887	7684.879	665.490	194.356	118.689	169.189
235.419	782.300	2184.681	2444.747	485.626	7669.977	666.204	192.089	118.192	168.107
236.380	785.000	2204.550	2437.016	488.033	7724.795	669.579	191.516	118.740	169.992
237.339	787.900	2184.490	2472.729	489.511	7774.683	672.368	194.993	119.313	168.680
238.300	790.900	2164.379	2452.898	502.769	7745.950	666.649	193.898	119.441	167.839
239.271	793.900	2146.001	2488.433	499.267	7771.461	675.985	191.847	117.747	168.425
240.222	796.500	2157.578	2481.886	499.980	7780.669	680.163	194.395	119.364	168.922
241.176	799.500	2149.147	2505.360	496.503	7864.310	672.139	194.178	118.103	169.928
242.134	802.400	2167.716	2502.074	502.120	7848.364	673.718	193.694	118.727	170.310
243.086	805.100	2164.965	2511.549	497.802	7853.216	686.773	193.821	119.173	171.711
244.068	808.000	2197.329	2507.716	500.209	7902.697	684.009	195.133	119.402	170.475
