Mon, Oct 16, 2017	11:48 AM
 Notes: GUA_top chamber_7.6E-09_30 sec__101617
 waiting time: 50.000
 time(s)	 temp (K)	 MS1=1.971	 MS2=14.708	 MS3=27.810	 MS4=125.586	 MS5=109.505	 MS6=125.586	 MS7=109.505	 MS8=125.586
0.000	100.400	2714.049	344.581	7791.992	9.006
0.855	100.400	2712.223	329.335	7733.303	8.464
1.712	100.400	2752.511	330.303	7728.386	8.737
2.577	100.400	2760.637	326.503	7687.056	8.657
3.448	100.400	2714.666	325.245	7750.038	8.871
4.311	100.400	2745.597	333.775	7748.930	9.077
5.189	100.400	2759.596	328.738	7744.727	8.504
6.069	100.400	2794.596	335.756	7796.526	8.799
6.945	100.400	2714.104	337.274	7814.115	8.774
7.813	100.400	2741.641	333.180	8564.178	8.430
8.686	100.500	2850.069	357.551	13925.344	8.905
9.550	100.700	2922.852	403.987	22004.723	9.487
10.434	101.300	2967.073	445.834	21012.948	9.034
11.316	102.300	2950.448	475.239	18302.900	9.169
12.181	103.900	3048.944	495.571	19748.410	9.449
13.054	106.200	3048.170	532.623	20031.325	9.020
13.941	109.200	3015.177	595.033	18661.685	8.741
14.805	112.600	2968.787	596.364	16733.489	10.027
15.672	116.300	2985.630	647.572	15503.352	9.317
16.537	120.100	2970.980	674.321	14759.798	9.110
17.407	123.800	2939.343	671.557	14010.156	9.241
18.274	127.400	2981.632	651.760	13383.510	8.670
19.149	130.500	2965.166	630.930	12966.124	9.551
20.013	133.900	2893.882	623.995	12591.405	8.975
20.878	137.300	2892.050	607.514	12355.449	9.392
21.772	140.600	2926.426	628.053	12055.620	9.049
22.641	143.900	2959.199	624.278	11740.075	9.727
23.510	147.200	2908.511	619.170	11315.518	9.795
24.406	150.300	2903.416	588.763	10908.257	9.813
25.271	153.500	2895.884	587.657	10595.195	9.394
26.137	156.600	2904.939	571.162	10323.361	10.328
27.012	159.600	2869.712	582.924	10175.326	10.049
27.883	162.500	2858.766	562.746	9842.993	9.555
28.751	165.500	2893.149	574.482	9677.330	10.217
29.624	168.300	2858.512	537.168	9420.653	9.459
30.489	171.200	2835.672	537.689	9353.506	9.752
31.354	173.700	2820.776	507.999	9202.847	10.054
32.220	176.500	2858.255	476.785	9123.142	9.834
33.085	179.300	2866.426	498.287	9146.743	9.728
33.963	182.000	2848.268	493.603	9076.412	9.662
34.824	184.800	2830.966	484.708	8983.894	9.809
35.702	187.500	2868.289	467.950	8934.503	9.829
36.579	190.200	2881.321	487.613	8917.168	9.599
37.463	192.900	2811.529	484.473	8909.068	10.526
38.328	195.600	2796.790	459.989	8755.657	11.038
39.194	198.300	2837.490	446.412	8681.366	9.947
40.061	201.000	2842.244	435.181	8663.000	11.507
40.927	203.700	2788.701	436.180	8658.988	10.245
41.793	206.000	2822.718	439.956	8626.599	10.928
42.658	208.700	2849.313	446.602	8652.530	10.649
43.533	211.400	2822.857	438.289	8633.897	11.274
44.398	214.000	2796.615	420.245	8548.486	10.034
45.263	216.700	2832.947	416.019	8551.632	10.802
46.131	219.300	2860.283	432.043	8590.657	10.650
46.998	222.000	2820.956	434.687	8638.151	11.002
47.865	224.600	2806.954	418.793	8579.665	10.988
48.733	226.900	2853.233	423.213	8557.720	11.246
49.598	229.600	2836.997	418.257	8627.592	11.311
50.467	232.200	2821.437	440.663	8698.509	11.521
51.333	234.900	2843.157	434.244	8664.095	11.398
52.197	237.500	2867.150	428.504	8623.657	11.246
53.063	240.100	2861.317	426.137	8628.560	11.398
53.931	242.800	2808.826	410.403	8574.800	11.580
54.798	245.400	2818.216	398.772	8535.024	10.780
55.663	247.700	2825.438	394.105	8535.699	10.744
56.527	250.400	2809.967	395.351	8525.573	11.522
57.404	253.000	2804.007	409.042	8567.362	11.791
58.269	255.700	2876.084	416.203	8574.965	11.781
59.131	258.300	2847.778	405.569	8627.439	11.742
59.992	261.000	2888.294	416.373	8604.960	11.559
60.856	263.600	2931.345	414.539	8611.646	12.771
61.726	266.200	3054.828	423.061	8612.347	11.506
62.595	268.500	3132.373	430.461	8672.526	12.036
63.459	271.200	3161.627	431.869	8681.162	11.721
64.324	273.800	3142.792	427.304	8644.264	12.175
65.214	276.500	3198.204	417.450	8594.962	11.315
66.082	279.100	3151.992	403.715	8611.863	12.108
66.948	281.800	3060.948	411.666	8665.904	11.719
67.814	284.400	3059.011	409.866	8603.928	12.580
68.682	287.100	3081.340	397.251	8628.395	12.041
69.550	289.700	3090.855	421.102	8659.281	12.605
70.415	292.300	3044.880	407.598	8616.104	12.850
71.282	294.600	3089.287	411.303	8660.019	12.581
72.148	297.300	3083.823	404.448	8616.894	12.995
73.014	299.900	3028.226	393.296	8572.189	12.222
73.882	302.500	3041.210	400.830	8596.388	12.568
74.759	305.200	3086.337	402.936	8617.263	13.365
75.627	307.800	3113.760	407.725	8673.240	13.038
76.493	310.500	3043.122	415.246	8621.899	12.699
77.358	313.100	3064.822	406.573	8575.895	13.293
78.226	315.700	3116.524	401.316	8619.186	13.483
79.093	318.000	3157.080	419.237	8698.445	12.689
79.959	320.700	3133.634	438.467	8738.106	13.893
80.825	323.300	3176.963	437.195	8715.003	13.956
81.695	325.900	3222.133	422.799	8747.748	14.108
82.560	328.600	3278.329	428.723	8799.012	13.483
83.426	331.200	3275.488	451.169	8830.178	14.351
84.309	333.900	3326.644	441.245	8790.835	14.042
85.187	336.500	3367.583	412.605	8659.739	14.230
86.052	339.200	3422.467	436.065	8803.941	14.258
86.918	341.800	3442.459	437.750	8775.450	14.117
87.794	344.400	3515.117	429.621	8770.113	14.149
88.669	347.000	3618.625	424.479	8725.854	14.833
89.535	349.400	3623.991	433.978	8763.427	14.644
90.403	352.000	3694.179	434.366	8780.914	14.824
91.269	354.600	3783.776	432.862	8756.269	14.009
92.142	357.300	3839.057	433.210	8705.170	14.295
93.010	359.900	3812.941	426.344	8748.563	14.788
93.875	362.600	3825.878	424.306	8701.999	13.925
94.742	365.200	3907.039	408.847	8690.230	14.870
95.608	367.800	3880.288	414.244	8675.621	15.240
96.473	370.500	3789.898	430.102	8801.865	15.099
97.340	372.800	3722.502	442.236	8762.293	15.236
98.207	375.400	3689.971	435.403	8800.706	15.408
99.076	378.100	3585.909	429.152	8807.940	15.082
99.941	380.700	3427.045	436.762	8829.822	15.905
100.809	383.400	3374.796	438.706	8886.805	15.291
101.673	386.000	3378.144	442.632	8910.494	15.149
102.538	388.600	3303.516	446.479	8891.517	16.814
103.405	391.300	3242.185	420.450	8822.205	16.472
104.269	393.600	3299.094	432.890	8924.976	16.366
105.137	396.200	3317.916	456.360	8987.830	16.923
106.003	398.800	3290.836	460.526	8994.211	17.335
106.873	401.500	3308.596	444.437	8972.304	15.765
107.737	404.100	3341.694	446.659	8995.332	15.919
108.603	406.700	3344.365	441.058	8990.556	15.840
109.484	409.400	3298.027	461.280	9081.456	16.704
110.349	412.000	3303.184	459.727	9064.516	17.120
111.216	414.600	3310.053	446.900	9070.948	17.107
112.081	416.900	3299.568	450.096	9135.344	16.955
112.946	419.600	3244.259	459.913	9154.117	17.700
113.812	422.200	3222.487	464.708	9168.255	16.679
114.677	424.800	3243.018	441.807	9170.967	16.832
115.545	427.500	3259.500	479.605	9377.425	16.837
116.423	430.100	3233.574	473.685	9355.442	18.308
117.284	432.700	3209.272	458.355	9319.194	17.330
118.148	435.400	3277.064	453.600	9341.458	17.560
119.013	437.700	3229.020	468.958	9473.802	18.305
119.879	440.300	3219.567	471.276	9445.769	17.963
120.744	443.000	3270.789	453.512	9400.949	17.726
121.608	445.600	3268.664	446.383	9407.700	17.771
122.473	448.300	3248.699	469.386	9528.174	17.664
123.343	450.900	3276.465	472.814	9535.472	18.306
124.208	453.600	3326.737	462.228	9478.272	18.647
125.091	456.200	3307.530	457.730	9433.580	18.893
125.956	458.900	3252.888	463.752	9521.092	18.852
126.823	461.200	3230.556	470.256	9494.193	18.466
127.691	463.800	3284.713	469.262	9463.715	18.539
128.588	466.700	3257.601	454.938	9399.829	18.125
129.452	469.100	3211.511	476.419	9457.181	19.638
130.338	471.700	3186.574	482.598	9496.396	19.540
131.203	474.400	3229.000	466.130	9478.145	19.776
132.070	477.000	3261.450	472.810	9477.177	19.222
132.935	479.600	3179.898	477.289	9405.178	19.148
133.804	482.300	3184.368	481.342	9403.013	19.781
134.670	484.900	3235.403	477.213	9426.881	19.930
135.542	487.500	3213.251	481.170	9390.518	18.501
136.411	490.200	3145.844	473.144	9333.421	20.505
137.280	492.800	3183.884	473.119	9206.922	19.702
138.145	495.100	3198.241	475.845	9228.995	20.109
139.011	497.800	3155.349	493.761	9292.702	20.676
139.877	500.400	3152.121	486.924	9225.161	21.266
140.742	503.000	3173.759	484.610	9183.971	20.939
141.607	505.700	3166.742	472.064	9130.325	20.802
142.473	508.300	3116.392	475.194	9131.433	21.341
143.339	511.000	3135.842	493.538	9199.051	21.153
144.206	513.600	3166.852	483.282	9186.952	22.276
145.073	515.900	3189.005	502.845	9191.575	20.995
145.939	518.500	3136.996	497.599	9200.019	21.062
146.807	521.200	3126.497	498.936	9134.477	22.275
147.675	523.800	3150.066	497.637	9234.140	22.174
148.542	526.500	3162.375	519.647	9267.828	21.970
149.436	529.100	3111.201	503.647	9187.576	23.460
150.303	531.700	3100.272	484.841	9064.402	23.558
151.170	534.400	3143.482	491.385	9069.611	22.780
152.031	537.000	3117.982	508.234	9134.286	22.687
152.899	539.600	3090.511	512.427	9164.243	22.482
153.768	541.900	3127.337	522.304	9129.969	23.083
154.631	544.600	3142.097	507.726	9144.004	23.854
155.498	547.200	3064.382	496.407	9036.827	23.045
156.363	549.900	3065.146	510.435	9131.408	23.789
157.230	552.500	3130.624	522.776	9157.480	22.776
158.117	555.100	3113.691	506.602	9145.074	22.576
158.984	557.800	3072.729	519.144	9145.686	23.259
159.850	560.400	3055.730	499.280	9074.400	24.391
160.715	563.100	3099.309	494.580	9052.009	24.444
161.582	565.400	3089.656	501.616	9163.096	25.010
162.448	568.000	3065.399	519.280	9161.988	23.653
163.316	570.700	3047.749	528.448	9206.884	24.093
164.182	573.300	3112.710	537.330	9266.478	24.306
165.049	575.900	3106.667	546.066	9289.531	25.440
165.917	578.600	3059.460	556.272	9350.042	25.745
166.782	581.200	3094.162	551.194	9331.014	26.693
167.648	583.800	3130.366	547.414	9285.799	27.075
168.513	586.500	3063.253	535.118	9265.918	25.885
169.380	588.800	3048.559	547.788	9319.092	24.832
170.248	591.400	3122.827	560.435	9366.612	26.242
171.121	594.000	3118.279	540.672	9290.958	26.824
171.987	596.700	3063.238	551.668	9320.990	26.158
172.871	599.300	3036.022	552.740	9300.637	26.819
173.736	602.000	3107.918	551.543	9350.768	26.717
174.599	604.600	3118.657	557.456	9408.821	26.918
175.467	607.300	3044.824	544.036	9322.990	26.466
176.335	609.900	3049.599	542.634	9361.861	26.916
177.201	612.200	3102.578	548.235	9387.563	27.858
178.095	615.100	3114.116	567.151	9407.343	27.607
178.963	617.800	3071.489	553.433	9395.409	27.967
179.832	620.100	3045.658	562.402	9416.450	28.426
180.702	622.700	3091.582	542.715	9405.891	27.168
181.568	625.400	3088.027	563.453	9497.619	27.713
182.434	628.000	3059.617	564.770	9463.804	28.307
183.301	630.700	3064.416	559.622	9432.077	28.291
184.175	633.300	3097.988	555.346	9474.044	27.870
185.041	635.900	3062.456	548.498	9406.617	28.188
185.906	638.500	3055.631	570.889	9507.974	29.923
186.774	641.200	3094.565	568.091	9543.037	29.048
187.641	643.500	3146.141	592.581	9642.522	28.442
188.507	646.200	3071.881	575.999	9551.392	31.200
189.373	648.800	3054.827	573.130	9558.155	29.769
190.239	651.400	3095.669	567.000	9533.090	31.559
191.105	654.000	3093.385	588.978	9662.352	31.402
191.970	656.700	3058.934	578.176	9582.966	30.632
192.838	659.300	3046.851	571.577	9584.189	31.170
193.704	662.000	3098.342	573.244	9617.609	31.584
194.582	664.600	3099.402	580.883	9670.504	31.170
195.447	666.900	3053.367	595.543	9729.805	30.502
196.315	669.500	3070.378	601.700	9734.275	31.768
197.193	672.200	3143.510	588.677	9694.448	32.516
198.059	674.800	3119.537	594.936	9731.766	32.055
198.926	677.400	3070.558	609.868	9767.504	32.415
199.791	680.100	3064.829	595.549	9727.767	32.459
