Mon, Oct 16, 2017	12:21 PM
 Notes: GUA_top chamber_1.2E-08_30 sec__101617
 waiting time: 50.000
 time(s)	 temp (K)	 MS1=1.971	 MS2=14.708	 MS3=27.810	 MS4=125.586	 MS5=109.505	 MS6=125.586	 MS7=109.505	 MS8=125.586
0.000	99.500	2967.772	372.156	8447.295	6.508
2.556	99.600	3014.622	367.641	8415.505	6.709
3.419	99.600	3058.689	362.232	8425.223	6.531
4.722	99.600	3017.670	376.060	8467.113	6.420
5.598	99.600	3009.248	368.706	8509.131	6.628
6.874	99.600	3063.833	379.203	8500.304	6.573
7.739	99.700	3021.758	378.824	8856.619	6.578
8.606	99.700	3068.068	398.582	11335.514	6.646
9.465	99.900	3176.417	440.513	18534.805	6.458
10.352	100.300	3267.654	477.884	20370.980	6.465
11.216	101.100	3259.689	510.535	17349.003	6.456
12.084	102.500	3240.635	561.290	18544.752	6.592
12.950	104.200	3348.526	603.715	21122.291	6.592
13.817	106.800	3354.221	641.227	19753.186	6.341
14.681	110.000	3263.607	700.119	18320.450	6.756
15.547	113.600	3273.332	734.148	16976.768	6.297
16.414	117.400	3308.196	794.556	16084.439	6.295
17.278	121.100	3283.734	835.158	15458.545	6.523
18.142	124.800	3234.978	846.339	15064.250	6.495
19.009	128.400	3258.108	851.880	14602.171	6.413
19.873	131.400	3278.856	833.450	14303.400	6.652
20.740	134.800	3271.336	857.127	14048.671	6.157
21.610	138.100	3222.534	821.259	13604.169	6.555
22.476	141.400	3283.906	809.158	13176.109	6.205
23.344	144.700	3270.454	801.433	12760.430	6.744
24.212	147.900	3211.242	781.836	12380.323	6.331
25.079	151.000	3202.082	783.159	12112.731	6.655
25.946	154.200	3263.302	759.847	11786.996	6.518
26.811	156.800	3258.411	728.148	11468.979	6.337
27.676	159.800	3210.028	723.680	11267.565	6.422
28.539	162.800	3207.185	732.570	11057.134	6.807
29.406	165.700	3298.029	781.521	10883.689	6.400
30.272	168.500	3238.993	760.312	10381.401	6.433
31.140	171.400	3134.630	717.157	10292.042	7.066
32.014	174.200	3159.640	709.028	10314.548	6.574
32.876	177.000	3217.901	689.803	10328.660	6.470
33.742	179.400	3181.162	656.197	10263.360	6.302
34.607	182.200	3166.005	673.887	10228.831	6.543
35.511	185.300	3166.429	634.623	10104.918	6.661
36.380	187.700	3216.739	637.216	10110.956	6.402
37.245	190.400	3166.900	623.346	9978.624	6.317
38.111	193.100	3154.923	613.578	9946.464	6.428
38.979	195.800	3183.147	590.743	9910.407	6.472
39.844	198.500	3194.388	574.122	9801.154	6.800
40.709	201.100	3139.303	581.731	9782.432	6.500
41.573	203.800	3131.345	550.611	9685.889	6.809
42.440	206.500	3152.555	542.347	9634.689	6.529
43.305	208.800	3175.900	546.967	9681.750	6.569
44.165	211.500	3131.379	546.539	9615.852	6.834
45.027	214.200	3112.276	522.938	9523.347	6.391
45.892	216.800	3166.205	520.131	9508.369	6.499
46.761	219.500	3151.746	539.648	9546.030	6.667
47.627	222.100	3099.831	519.372	9492.486	6.948
48.494	224.800	3105.053	495.109	9411.266	6.717
49.363	227.100	3139.598	493.304	9383.488	6.730
50.229	229.700	3082.294	497.026	9446.673	6.084
51.097	232.400	3105.058	510.614	9436.497	6.455
51.980	235.000	3138.188	484.704	9348.030	7.056
52.849	237.600	3129.330	480.606	9339.280	7.145
53.715	240.300	3081.018	503.640	9404.095	6.862
54.581	242.900	3073.813	477.688	9361.263	6.835
55.448	245.600	3123.945	500.866	9359.416	7.088
56.313	248.200	3132.080	497.096	9338.834	7.069
57.176	250.900	3082.605	495.766	9352.245	6.688
58.041	253.200	3074.027	489.604	9268.057	6.695
58.906	255.800	3108.766	491.659	9320.391	6.907
59.773	258.400	3140.843	522.904	9385.296	7.155
60.636	261.100	3118.369	516.375	9350.182	6.726
61.500	263.700	3177.513	495.328	9325.779	6.736
62.366	266.400	3294.215	499.512	9340.833	6.948
63.230	269.000	3389.038	512.256	9342.082	7.048
64.095	271.300	3477.444	468.467	9294.587	7.071
64.961	273.900	3631.205	482.981	9338.490	7.011
65.827	276.600	3658.165	494.704	9405.089	6.880
66.695	279.300	3636.902	490.758	9342.285	7.030
67.562	281.900	3573.789	465.787	9273.063	6.689
68.431	284.500	3521.420	473.089	9362.995	6.814
69.297	287.200	3514.676	488.900	9392.174	6.889
70.163	289.800	3438.768	492.885	9461.511	6.581
71.028	292.100	3422.898	492.024	9392.467	6.530
71.894	294.800	3445.200	472.400	9303.414	6.472
72.759	297.400	3446.623	477.147	9334.745	7.253
73.624	300.000	3420.827	467.605	9316.137	7.205
74.489	302.700	3452.912	477.512	9339.674	6.982
75.370	305.300	3450.950	475.244	9304.777	7.288
76.238	308.000	3428.221	478.488	9283.685	6.567
77.104	310.600	3392.962	454.094	9278.718	7.102
77.974	313.200	3483.656	477.796	9345.151	6.969
78.840	315.500	3519.323	484.382	9358.130	7.056
79.704	318.200	3474.566	476.650	9312.801	7.521
80.573	320.800	3507.400	472.509	9265.905	7.342
81.438	323.400	3592.961	472.452	9269.293	7.065
82.317	326.100	3616.893	458.825	9269.369	6.893
83.183	328.700	3588.768	450.778	9217.430	7.088
84.050	331.400	3634.081	462.099	9242.483	7.215
84.926	334.000	3741.316	459.144	9223.187	7.235
85.790	336.600	3802.888	472.312	9307.884	6.981
86.658	339.300	3758.390	475.761	9305.948	7.388
87.525	341.600	3822.006	461.598	9206.222	7.279
88.393	344.200	3903.483	476.021	9265.536	7.056
89.282	346.800	3994.690	489.218	9316.379	7.461
90.149	349.500	4020.654	476.729	9351.723	7.635
91.019	352.100	4078.594	497.272	9340.120	7.416
91.881	354.800	4182.019	466.586	9289.773	7.525
92.745	357.400	4206.643	470.593	9277.813	7.018
93.611	360.000	4250.851	472.885	9359.314	7.084
94.479	362.700	4316.753	463.553	9334.414	7.267
95.345	365.300	4345.945	456.403	9280.488	7.214
96.211	367.600	4251.190	443.534	9267.153	7.486
97.078	370.300	4246.231	448.918	9326.327	7.322
97.970	372.900	4223.065	441.999	9335.955	6.992
98.836	375.600	4131.242	458.008	9436.688	6.936
99.704	378.200	3941.769	443.813	9444.266	7.263
100.572	380.900	3821.755	466.364	9478.858	7.631
101.439	383.500	3791.976	456.247	9491.620	7.300
102.307	386.100	3722.805	469.120	9510.445	7.438
103.168	388.700	3623.059	467.137	9497.950	7.610
104.035	391.400	3589.539	464.265	9481.469	7.871
104.900	393.700	3608.511	466.545	9410.425	8.028
105.766	396.400	3636.354	464.706	9408.222	7.624
106.630	399.000	3559.457	464.555	9375.935	7.493
107.497	401.600	3601.520	469.589	9453.500	7.502
108.362	404.200	3632.573	470.140	9414.909	7.598
109.226	406.900	3566.837	451.879	9375.566	7.698
110.093	409.500	3544.822	446.238	9378.380	7.499
110.959	412.100	3577.034	440.770	9369.987	7.311
111.823	414.500	3572.667	452.485	9418.755	7.384
112.690	417.100	3498.074	449.422	9480.081	7.432
113.579	419.700	3481.931	444.071	9506.853	7.856
114.447	422.300	3536.033	457.468	9605.128	7.782
115.315	425.000	3543.565	441.668	9647.756	7.612
116.237	427.900	3513.694	449.586	9735.803	7.517
117.104	430.200	3479.599	447.662	9741.267	7.719
117.970	432.900	3525.814	441.778	9897.989	8.197
118.838	435.500	3518.253	443.964	9814.960	7.691
119.701	438.200	3479.896	456.432	9921.998	7.700
120.569	440.800	3534.045	463.501	10028.067	7.218
121.435	443.400	3617.829	467.464	10066.225	7.708
122.302	446.100	3589.931	464.023	10141.969	7.900
123.167	448.700	3559.365	477.386	10213.611	7.462
124.033	451.000	3571.318	471.158	10171.441	7.359
124.899	453.700	3641.701	464.054	10271.053	7.617
125.768	456.300	3654.416	466.889	10250.483	7.719
126.636	459.000	3559.836	471.367	10246.051	7.714
127.501	461.600	3595.725	462.153	10183.502	7.796
128.366	464.300	3647.353	458.787	10086.209	7.700
129.232	466.900	3581.000	447.685	10004.619	8.501
130.107	469.500	3550.774	463.092	10095.099	7.996
130.972	471.900	3597.191	459.917	9983.349	7.819
131.852	474.500	3574.086	452.553	9885.928	8.480
132.717	477.100	3501.778	472.328	9959.214	8.180
133.585	479.800	3516.382	474.551	9842.790	7.963
134.455	482.400	3569.236	464.520	9776.484	8.085
135.321	485.100	3541.888	466.542	9724.060	7.819
136.188	487.700	3465.379	457.599	9671.625	7.823
137.054	490.300	3460.115	460.541	9551.736	8.045
137.920	493.000	3497.820	460.546	9497.925	7.598
138.785	495.600	3488.374	466.257	9476.617	7.601
139.655	497.900	3438.603	473.689	9467.816	8.226
140.523	500.600	3470.848	483.889	9466.529	7.809
141.393	503.200	3494.926	475.184	9363.084	7.938
142.257	505.800	3492.723	470.571	9390.773	7.986
143.124	508.400	3411.688	467.349	9281.698	8.445
143.990	511.100	3429.577	484.066	9384.749	8.178
144.856	513.700	3465.419	486.516	9305.961	8.034
145.726	516.400	3403.127	477.945	9328.364	8.396
146.597	519.000	3436.056	484.664	9289.964	8.045
147.462	521.300	3471.057	499.723	9278.501	7.970
148.330	523.900	3479.426	500.361	9206.744	7.978
149.193	526.600	3406.198	473.705	9206.311	7.707
150.058	529.200	3380.371	478.045	9114.519	7.803
150.925	531.900	3456.085	493.412	9158.562	8.031
151.790	534.500	3425.124	486.075	9152.016	8.140
152.656	537.100	3370.413	482.595	9128.135	8.086
153.521	539.400	3364.612	474.277	9111.055	7.894
154.389	542.100	3408.004	478.671	9089.862	8.285
155.255	544.700	3400.521	481.434	9094.077	8.467
156.124	547.400	3312.711	500.275	9154.168	8.442
156.992	550.000	3339.762	473.280	9070.388	8.964
157.861	552.600	3349.729	475.907	9080.704	8.727
158.728	555.300	3309.338	495.690	9108.521	8.472
159.596	557.900	3335.143	508.268	9139.738	8.034
160.463	560.600	3347.744	484.373	9055.919	8.363
161.329	562.900	3319.315	459.809	9016.678	8.706
162.194	565.500	3266.446	475.921	9029.465	8.540
163.062	568.200	3237.612	484.997	9087.964	8.732
163.928	570.800	3293.550	474.524	9047.882	8.620
164.794	573.400	3297.907	477.333	9100.649	8.494
165.659	576.100	3251.326	489.980	9109.438	8.592
166.526	578.700	3267.303	491.876	9071.419	8.896
167.394	581.300	3282.776	469.200	9042.750	8.262
168.262	583.700	3275.985	471.105	9102.866	9.511
169.140	586.300	3230.736	487.613	9074.502	8.500
170.035	589.200	3211.115	459.651	9035.197	8.889
170.902	591.900	3281.691	464.764	9014.729	8.899
171.800	594.500	3265.455	458.475	9045.424	8.247
172.668	597.100	3194.734	473.831	9076.667	8.445
173.533	599.500	3189.292	451.894	8963.210	8.684
174.398	602.100	3253.107	467.922	9074.336	8.644
175.264	604.700	3233.898	456.110	9036.763	8.962
176.130	607.400	3173.550	452.038	9032.586	8.626
176.998	610.000	3194.835	434.667	8975.361	8.611
177.868	612.700	3211.708	449.585	8999.815	8.788
178.735	615.300	3190.306	450.899	9074.896	8.678
179.603	617.900	3169.694	451.813	9026.689	8.993
180.470	620.500	3208.635	467.104	9104.802	9.007
181.339	622.800	3203.570	461.581	9099.427	8.872
182.206	625.500	3171.514	481.708	9201.611	9.025
183.073	628.200	3151.070	464.661	9176.495	9.289
183.939	630.800	3222.375	486.090	9212.450	9.258
184.806	633.400	3181.902	469.025	9148.195	8.719
185.672	636.000	3145.174	458.214	9139.750	8.974
186.537	638.700	3163.236	476.859	9171.044	8.938
187.405	641.300	3181.457	455.383	9140.311	9.113
188.272	643.600	3203.524	479.737	9209.508	9.390
189.143	646.300	3161.073	484.668	9289.951	9.220
190.011	648.900	3175.735	481.973	9253.996	9.422
190.878	651.600	3175.907	465.218	9267.204	9.748
191.744	654.200	3179.575	462.607	9268.732	9.123
192.612	656.800	3119.300	465.667	9308.508	9.146
193.474	659.500	3170.673	460.565	9260.237	9.338
194.340	662.100	3180.247	479.625	9333.153	9.775
195.207	664.400	3103.858	472.109	9381.998	9.592
196.076	667.000	3127.668	486.519	9339.356	9.552
196.942	669.700	3167.914	494.485	9394.518	10.067
197.809	672.300	3161.268	488.064	9402.414	8.807
198.674	674.900	3144.286	502.165	9452.952	9.035
199.541	677.600	3119.664	473.620	9367.058	9.062
200.406	680.200	3158.507	485.776	9458.939	9.603
201.272	682.800	3173.486	498.299	9467.345	9.211
202.137	685.500	3095.808	468.411	9421.226	9.418
203.004	687.800	3094.498	471.369	9418.628	9.639
203.871	690.400	3104.532	464.265	9438.751	9.640
204.738	693.100	3101.735	507.037	9504.879	9.943
205.601	695.700	3073.578	500.693	9506.458	9.545
206.470	698.400	3106.080	476.744	9476.107	9.334
207.337	701.000	3109.904	468.418	9451.755	10.165
208.208	703.600	3025.640	486.481	9525.869	9.708
209.076	706.300	3034.854	490.390	9517.182	9.686
209.935	708.600	3061.526	475.920	9466.504	9.938
