Wed, Oct 25, 2017	2:06 PM
 Notes: GUA top chamber_1E-09 above base_ 60 sec_102517
 waiting time: 50.000
 time(s)	 temp (K)	 MS1=1.971	 MS2=27.883	 MS3=125.586	 MS4=17.664	 MS5=32.000	 MS6=84.866	 MS7=56.522	 MS8=125.586
0.000	105.700	3369.986	8241.984	118.479	1297.702	266.279
1.087	105.700	3383.601	8310.034	118.539	1293.881	269.718
2.185	105.700	3366.764	8293.311	118.319	1312.324	264.572
3.476	105.700	3434.216	8432.801	116.936	1316.896	267.273
4.553	105.700	3413.825	8438.774	117.901	1312.031	268.814
5.623	105.700	3406.986	8446.569	115.777	1306.630	268.661
6.719	105.700	3422.142	8462.413	112.964	1321.889	268.317
7.820	105.700	3404.311	8413.034	112.728	1313.139	263.821
8.944	105.700	3371.514	8373.093	112.989	1308.414	265.833
10.036	105.800	3409.393	9632.167	119.757	1355.678	303.062
11.128	106.000	3621.276	18063.403	127.127	1344.865	353.116
12.215	106.700	3846.788	28027.153	128.251	1348.597	413.678
13.295	108.200	4091.863	33396.076	126.153	1383.342	464.586
14.373	110.700	4258.201	30265.265	122.914	1475.987	455.950
15.452	114.400	4193.716	24163.284	117.644	1381.916	410.354
16.558	119.100	4050.482	19701.846	120.218	1356.379	390.994
17.637	123.700	3947.928	17821.373	116.987	1386.883	381.187
18.716	128.800	3954.615	16975.647	114.973	1500.110	377.468
19.820	133.600	3931.218	16796.509	115.824	1841.472	370.998
20.948	138.400	3936.363	16883.868	116.624	2769.845	375.036
22.028	142.100	4010.056	17765.434	116.932	4739.524	385.951
23.106	146.000	4053.016	18356.813	119.051	7394.246	391.911
24.210	149.900	4103.975	18798.538	119.884	8587.498	399.846
25.292	153.800	4158.856	18772.824	115.532	7455.138	407.985
26.371	157.700	4178.088	18582.923	115.926	5745.028	403.183
27.449	161.600	4164.397	18333.365	117.278	4495.761	411.513
28.529	165.100	4155.940	17916.883	113.641	3711.030	415.436
29.646	169.100	4162.665	17870.281	115.900	3246.532	427.777
30.724	172.400	4199.486	17634.720	116.225	2979.385	419.537
31.805	175.900	4187.106	17537.121	116.436	2820.421	416.595
32.912	179.400	4187.717	17462.230	112.715	2720.325	403.132
33.988	182.900	4200.313	17267.897	114.270	2610.665	407.717
35.065	186.300	4182.877	16940.431	114.968	2543.671	403.769
36.146	189.700	4177.146	16776.525	115.983	2466.373	396.318
37.223	192.800	4210.706	16523.248	123.179	2418.663	398.624
38.300	196.200	4220.195	16346.428	130.375	2384.083	393.440
39.418	199.600	4229.964	16109.174	145.889	2323.636	388.180
40.495	203.000	4209.535	15943.612	172.986	2307.486	393.593
41.571	206.300	4236.332	15762.385	210.596	2303.028	395.006
42.649	209.600	4243.414	15673.460	269.652	2287.019	398.420
43.728	213.000	4267.536	15633.149	331.901	2269.531	393.325
44.843	216.300	4292.500	15507.491	377.564	2256.018	390.256
45.923	219.600	4297.531	15451.642	389.891	2257.610	391.084
47.001	222.600	4340.287	15290.194	373.095	2207.352	390.574
48.080	225.900	4349.687	15043.018	347.082	2190.323	390.065
49.159	229.200	4386.609	14869.930	316.257	2174.212	388.778
50.238	232.500	4422.526	14715.118	289.260	2139.174	391.236
51.334	235.800	4469.995	14515.118	264.996	2108.721	385.632
52.444	239.100	4455.667	14444.685	238.748	2090.075	382.423
53.522	242.400	4512.280	14334.069	225.159	2058.246	379.264
54.647	245.700	4505.530	14170.291	209.150	2033.067	377.863
55.736	249.000	4541.243	14082.410	204.090	2014.217	371.737
56.814	252.400	4507.071	14019.899	188.048	1978.363	374.781
57.894	255.300	4484.642	13792.923	182.009	1974.683	365.139
58.974	258.600	4456.533	13792.401	181.215	1970.582	364.859
60.090	261.900	4475.879	13638.863	172.361	1952.432	368.158
61.170	265.200	4441.504	13550.765	168.219	1930.258	369.495
62.249	268.500	4452.240	13504.824	165.734	1933.315	365.279
63.338	271.800	4494.997	13495.310	158.527	1924.819	366.642
64.410	275.100	4484.731	13364.774	161.253	1900.073	367.088
65.491	278.100	4451.374	13188.171	157.607	1905.651	357.765
66.567	281.400	4479.012	13202.690	157.694	1869.594	367.114
67.665	284.700	4489.851	13088.368	158.083	1878.968	363.878
68.775	288.000	4541.052	13053.088	156.695	1865.697	360.503
69.853	291.400	4590.737	13035.384	156.219	1847.242	363.560
70.933	294.700	4631.086	12936.830	153.503	1867.416	360.567
72.013	297.900	4729.933	12953.973	158.659	1862.806	364.541
73.096	301.200	4801.219	12917.101	160.007	1849.662	360.096
74.210	304.500	4990.674	13034.378	155.139	1844.936	358.529
75.326	307.800	5152.478	13140.613	153.575	1850.693	360.427
76.441	311.100	5311.110	13139.989	151.150	1835.792	365.598
77.521	314.400	5492.655	13244.504	150.876	1843.892	371.227
78.600	317.700	5652.090	13272.193	150.676	1839.740	361.000
79.677	320.700	5815.652	13454.172	145.786	1847.114	365.369
80.755	324.000	5972.374	13466.004	144.187	1838.415	368.629
81.834	327.300	6130.752	13582.440	142.230	1849.636	369.814
82.913	330.600	6219.053	13716.453	139.956	1850.999	370.285
84.025	333.800	6314.742	13857.497	136.345	1859.876	373.189
85.109	337.200	6397.122	13948.893	135.409	1860.984	373.966
86.185	340.500	6437.127	14097.413	134.827	1876.854	365.814
87.299	343.800	6421.448	14213.544	135.020	1893.934	360.656
88.410	347.100	6389.212	14225.020	131.613	1904.161	367.725
89.523	350.400	6264.790	14125.714	128.378	1912.223	365.165
90.628	353.700	6223.447	14183.894	130.487	1930.067	353.320
91.706	357.000	6115.926	14196.146	126.767	1934.741	359.739
92.786	360.300	6051.684	14246.481	126.848	1950.547	357.574
93.868	363.200	5969.406	14334.197	124.672	1967.257	358.134
94.945	366.500	5940.571	14394.605	125.840	1969.410	349.130
96.026	369.800	6038.209	14587.181	120.399	1991.902	356.670
97.105	373.100	6055.021	14625.734	125.826	1986.731	356.071
98.225	376.400	6213.895	14812.960	123.515	2005.543	352.186
99.305	379.700	6357.562	15032.269	121.211	2009.823	354.555
100.389	383.000	6635.828	15462.824	121.022	2009.657	355.192
101.510	386.300	6869.567	15960.297	121.853	2024.087	347.105
102.627	389.600	7295.614	16775.099	120.410	2031.373	353.320
103.703	392.900	7676.409	17630.542	118.444	2040.224	369.075
104.781	396.200	8036.073	18650.617	119.414	2048.592	362.490
105.861	399.200	8499.413	20112.762	119.436	2058.132	375.558
106.965	402.800	8818.053	21827.508	120.145	2095.475	378.653
108.048	405.700	9193.766	23916.146	121.498	2111.829	387.772
109.130	409.000	9524.085	26339.204	121.233	2131.150	404.304
110.210	412.300	9625.404	28395.058	117.755	2139.390	419.180
111.289	415.600	9392.569	30234.367	119.417	2157.998	429.726
112.416	418.900	8899.707	31279.902	121.476	2150.598	434.337
113.495	422.200	8089.605	31000.324	117.997	2162.150	427.650
114.614	425.500	7511.026	30558.968	116.266	2181.726	436.922
115.694	428.800	7180.566	30212.231	117.077	2210.001	434.553
116.771	432.100	6924.602	29937.671	112.590	2225.502	439.202
117.849	435.000	6701.790	29715.790	115.539	2239.422	429.497
118.927	438.300	6560.479	29804.524	113.622	2276.295	428.236
120.020	441.700	6413.246	29612.739	115.083	2279.835	439.291
121.098	445.000	6235.471	29319.177	114.644	2322.324	431.216
122.178	448.300	6120.269	29167.625	112.293	2336.563	426.389
123.259	451.600	6092.975	29104.198	109.114	2339.964	423.472
124.334	454.500	6063.618	29139.058	112.487	2368.048	431.140
125.438	457.800	6062.064	29133.938	111.279	2389.713	423.969
126.518	461.100	6043.469	29030.849	109.881	2410.766	422.250
127.597	464.400	6115.251	28991.506	109.942	2415.185	418.887
128.680	467.700	6192.129	28871.911	110.450	2438.850	425.574
129.794	471.000	6269.451	28672.776	108.046	2445.982	424.466
130.893	474.300	6313.532	28290.250	107.850	2465.023	419.524
131.974	477.600	6357.690	27511.772	105.911	2478.358	412.570
133.058	480.900	6414.290	26718.012	106.035	2480.320	415.971
134.153	484.200	6405.375	25315.028	103.905	2493.425	398.802
135.236	487.500	6464.357	24051.177	103.053	2482.740	395.554
136.315	490.500	6498.644	22730.510	102.359	2501.093	381.136
137.395	493.800	6452.971	20802.631	100.652	2505.602	371.368
138.475	497.100	6419.436	18745.542	100.545	2523.662	360.745
139.551	500.400	6389.709	16792.917	100.354	2490.101	347.461
140.634	503.700	6433.013	14905.923	97.948	2495.196	345.423
141.714	506.700	6478.049	13297.692	97.817	2498.979	336.342
142.796	510.000	6587.468	12205.452	94.996	2507.920	328.560
143.874	513.300	6778.578	11645.456	94.779	2513.422	327.465
144.954	516.500	6983.253	11304.972	95.820	2536.386	324.803
146.035	519.800	7081.757	11064.381	95.684	2524.401	323.542
147.115	523.100	7219.463	11002.940	96.314	2521.891	317.327
148.192	526.100	7378.592	11150.530	95.687	2534.908	327.860
149.264	529.400	7212.433	11078.162	96.686	2547.708	328.802
150.346	532.700	6931.250	10989.936	94.088	2545.645	322.574
151.426	536.000	6598.077	10923.414	93.748	2553.834	322.829
152.506	539.300	6111.800	10811.422	92.747	2549.020	323.275
153.583	542.300	5747.104	10843.594	94.870	2545.467	320.485
154.691	545.500	5457.044	10785.363	93.022	2551.364	325.453
155.769	548.800	5250.523	10771.251	94.391	2547.377	320.676
156.849	552.100	5111.543	10747.816	92.892	2560.534	323.810
157.969	555.400	5014.631	10763.686	93.288	2548.269	322.332
159.046	558.700	4973.174	10771.532	92.847	2535.316	316.015
160.130	562.000	4914.790	10680.122	95.207	2534.271	316.244
161.212	565.300	4922.559	10725.808	89.762	2536.322	322.116
162.316	568.600	4925.782	10714.994	92.046	2536.220	319.084
163.395	571.900	4913.007	10695.520	92.514	2527.088	313.009
164.502	575.200	4851.719	10589.375	92.584	2538.576	313.162
165.583	578.200	4933.029	10750.733	91.152	2526.910	317.874
166.663	581.500	4901.863	10584.318	91.659	2525.636	315.849
167.743	584.800	4938.913	10657.668	92.487	2534.437	314.321
168.820	588.100	4950.592	10681.994	92.598	2538.856	316.906
169.900	591.400	4983.618	10747.511	90.606	2523.318	316.550
171.007	594.700	4940.849	10705.340	92.724	2533.036	316.652
172.087	598.000	4927.144	10711.683	93.116	2526.400	315.480
173.168	601.000	4908.969	10693.406	93.907	2526.247	311.392
174.246	604.300	4930.902	10707.174	91.868	2520.949	315.938
175.327	607.500	4933.322	10862.584	94.725	2535.316	318.728
176.407	610.800	4902.665	10770.780	93.362	2512.594	312.576
177.490	614.100	4902.092	10783.313	93.708	2513.371	316.932
178.570	617.100	4826.374	10685.802	94.237	2511.397	311.328
179.649	620.400	4883.331	10789.910	93.651	2524.643	318.333
180.731	623.700	4884.694	10773.302	92.300	2505.805	315.493
181.811	627.000	4865.131	10702.742	92.263	2493.948	312.958
182.892	630.300	4858.992	10669.576	92.325	2506.646	313.799
183.966	633.600	4879.255	10738.964	94.028	2501.335	311.493
185.039	636.500	4879.319	10753.713	93.837	2504.417	311.837
186.152	639.800	4861.119	10687.063	94.884	2500.189	308.335
187.234	643.200	4876.084	10769.710	93.661	2486.968	314.130
188.314	646.500	4902.474	10786.344	91.181	2480.689	311.952
189.394	649.700	4915.350	10853.592	95.079	2492.228	312.576
190.511	653.000	4862.736	10810.123	94.446	2487.949	308.768
191.590	656.300	4864.277	10824.935	96.333	2487.083	312.168
192.671	659.600	4887.534	10910.104	96.031	2485.249	309.175
193.752	662.900	4890.693	10972.818	99.744	2476.473	311.341
194.857	666.200	4833.875	10928.368	97.808	2480.358	309.991
195.938	669.200	4794.189	10930.928	97.618	2489.350	307.125
197.016	672.500	4700.079	10854.904	100.538	2476.155	315.696
198.097	675.700	4626.526	10775.174	102.365	2474.665	309.850
199.175	679.000	4585.667	10856.675	101.483	2460.591	307.150
200.253	682.300	4538.530	10912.893	101.996	2455.827	305.711
201.333	685.300	4511.134	11110.716	102.612	2485.631	306.870
202.416	688.600	4465.066	11151.294	99.920	2450.249	308.411
203.498	691.900	4374.484	11156.758	104.842	2453.471	304.094
204.578	695.200	4351.610	11162.782	103.503	2459.228	311.213
205.662	698.500	4267.842	11056.522	102.020	2455.917	307.201
206.744	701.800	4248.928	11043.735	106.032	2442.301	309.545
207.826	704.800	4209.687	11090.045	103.522	2439.117	303.329
208.907	708.100	4206.427	11142.073	102.864	2451.637	300.744
209.988	711.400	4196.633	11162.464	104.668	2452.134	306.781
211.069	714.700	4167.352	11071.844	104.993	2439.232	301.470
212.149	718.000	4177.553	11157.446	107.451	2433.246	306.590
213.232	721.300	4170.141	11145.066	106.336	2427.782	299.801
214.386	724.600	4184.240	11248.690	108.130	2437.767	304.285
215.464	727.800	4185.183	11356.033	108.477	2430.507	304.883
216.545	731.100	4174.293	11388.498	110.426	2433.067	299.840
217.626	734.400	4196.913	11511.201	112.226	2429.552	308.246
218.725	737.700	4171.669	11549.257	111.860	2445.371	301.725
219.804	740.700	4182.533	11610.622	108.550	2428.189	305.138
220.901	744.000	4181.196	11639.890	114.034	2426.152	304.756
222.021	747.300	4145.585	11591.109	113.530	2412.205	303.380
223.102	750.500	4172.815	11878.800	112.925	2417.300	303.431
224.183	753.800	4201.447	11961.294	115.770	2432.966	306.781
225.263	757.100	4206.236	12008.495	116.779	2415.071	311.290
226.342	760.400	4177.579	11983.061	114.478	2417.300	308.526
227.420	763.700	4195.907	12114.552	114.746	2421.032	307.367
228.500	766.700	4164.639	12212.597	116.266	2398.068	307.265
229.578	769.900	4184.024	12393.225	116.984	2400.577	307.660
230.656	773.200	4207.280	12544.993	119.838	2403.837	303.992
231.767	776.600	4221.838	12814.929	117.315	2407.302	312.971
232.866	779.900	4246.852	12898.009	119.004	2415.810	312.933
233.947	783.200	4220.475	13036.862	120.757	2398.832	312.678
235.025	786.500	4207.127	13076.842	122.145	2406.321	306.526
236.106	789.700	4240.917	13281.911	120.730	2396.132	313.837
237.184	792.700	4238.663	13423.731	121.753	2390.451	315.824
238.266	796.000	4261.283	13584.898	120.825	2392.336	316.830
