Wed, Oct 25, 2017	11:14 AM
 Notes: GUA top chamber_1E-09 above base_ 10 sec_102517
 waiting time: 50.000
 time(s)	 temp (K)	 MS1=1.971	 MS2=27.883	 MS3=125.586	 MS4=29.015	 MS5=111.548	 MS6=84.866	 MS7=56.522	 MS8=125.586
0.000	103.000	3890.677	8287.249	8.951
0.693	103.000	3990.993	8256.580	8.783
1.387	103.000	3947.688	8247.002	9.343
2.093	103.000	3994.222	8238.494	8.875
2.757	103.000	3990.880	8264.782	9.492
3.447	103.000	3948.001	8241.321	8.915
4.116	103.000	3966.566	8217.339	8.872
4.820	103.000	3967.095	8268.004	9.345
5.502	103.000	3916.686	8323.102	9.170
6.189	103.000	4013.659	8644.519	9.189
6.890	103.100	4018.849	9822.411	9.064
7.542	103.200	4039.894	13831.094	9.348
8.191	103.400	4217.015	21364.640	9.100
8.870	103.800	4287.532	23228.161	9.342
9.538	104.500	4306.238	19153.733	9.162
10.217	105.500	4303.620	19195.597	9.858
10.894	106.800	4352.485	21274.198	9.196
11.558	108.600	4384.556	21348.630	9.124
12.248	110.800	4399.954	19761.885	9.376
12.928	113.800	4313.757	17495.561	9.608
13.594	116.700	4301.600	15973.416	9.439
14.244	119.800	4310.539	14860.123	9.930
14.940	122.900	4218.964	13890.140	9.250
15.596	126.000	4240.359	13499.908	9.492
16.277	128.900	4214.473	12995.838	9.629
16.929	131.700	4161.300	12632.110	9.320
17.630	134.400	4223.124	12490.519	9.490
18.295	137.000	4182.568	12441.955	9.947
18.980	139.900	4174.524	12268.115	9.131
19.655	142.300	4192.580	12185.099	10.186
20.319	144.700	4200.597	12052.564	9.839
20.997	147.100	4129.843	11829.650	9.922
21.671	149.400	4197.517	11695.192	9.743
22.354	151.800	4128.241	11576.450	9.947
23.041	154.500	4134.268	11379.149	9.822
23.719	156.800	4177.930	11211.525	10.198
24.406	159.100	4119.235	11022.338	10.352
25.073	161.400	4132.781	10862.916	9.362
25.724	163.700	4162.693	10834.055	10.497
26.388	165.900	4092.828	10600.799	9.909
27.042	168.100	4086.920	10487.967	10.021
27.693	170.300	4159.900	10553.636	10.470
28.390	172.500	4080.818	10359.749	10.498
29.084	174.900	4134.429	10439.964	10.279
29.742	176.700	4136.283	10443.275	10.325
30.395	178.800	4064.939	10240.078	10.049
31.048	180.800	4057.990	10159.825	10.785
31.741	183.200	4101.196	10310.128	10.445
32.413	185.300	4096.542	10302.270	11.033
33.102	187.300	4158.713	10282.949	10.148
33.754	189.400	4105.196	10144.860	11.028
34.408	191.400	4042.402	10029.340	10.864
35.062	193.500	4035.219	10002.772	10.639
35.715	195.500	4111.333	9973.071	10.645
36.413	197.600	4025.723	9874.185	10.916
37.083	199.600	4048.163	9885.189	10.035
37.768	201.600	4071.245	9810.057	10.724
38.435	203.900	4027.289	9795.346	10.571
39.135	205.900	4059.924	9805.905	10.929
39.787	207.900	4082.154	9772.433	10.670
40.440	209.900	3976.457	9673.560	10.449
41.129	211.900	4040.599	9758.067	10.282
41.782	213.900	4074.247	9769.631	11.548
42.439	215.900	4033.832	9714.368	10.399
43.092	217.900	4037.660	9678.833	10.800
43.778	219.900	4072.631	9715.820	10.981
44.431	221.900	3999.115	9636.892	11.064
45.125	223.900	4072.125	9685.991	10.663
45.791	225.900	4028.768	9618.297	10.989
46.487	228.200	4020.934	9654.418	11.119
47.158	230.200	4039.165	9594.824	11.424
47.811	232.100	4055.344	9666.785	10.895
48.464	234.100	4013.634	9655.080	11.962
49.116	236.100	4069.291	9606.465	11.166
49.766	238.100	4088.099	9568.918	11.368
50.420	239.800	4032.203	9532.186	11.351
51.070	241.700	4063.839	9540.426	11.939
51.722	243.700	4106.093	9530.072	11.538
52.375	245.700	4074.536	9538.592	11.893
53.028	247.700	4067.840	9619.010	11.465
53.682	249.700	4206.281	9669.115	11.167
54.375	251.700	4118.012	9584.800	11.935
55.029	253.600	4161.519	9613.954	11.073
55.680	255.600	4265.652	9740.631	11.773
56.333	257.600	4260.198	9721.322	11.752
56.985	259.600	4230.788	9642.789	12.200
57.635	261.600	4282.950	9691.302	12.085
58.286	263.500	4365.721	9796.658	12.441
58.937	265.500	4316.766	9791.411	12.473
59.588	267.500	4389.290	9799.358	11.864
60.241	269.500	4378.236	9839.478	11.629
60.894	271.400	4356.129	9817.279	12.036
61.547	273.400	4332.800	9811.203	12.683
62.200	275.400	4396.910	9848.636	12.664
62.852	277.400	4380.102	9898.384	12.496
63.528	279.400	4357.306	9806.720	12.339
64.182	281.400	4403.706	9840.917	13.199
64.833	283.300	4404.427	9865.015	12.042
65.486	285.000	4373.884	9888.857	11.919
66.138	287.000	4413.276	9919.896	12.903
66.848	289.300	4348.920	9941.459	12.247
67.503	291.300	4346.714	9926.608	12.726
68.157	293.200	4402.748	9989.959	13.364
68.811	295.200	4384.645	9979.286	12.815
69.464	297.200	4323.851	9948.986	12.683
70.118	299.200	4371.064	9929.869	13.080
70.771	300.900	4379.276	9999.066	13.332
71.449	303.200	4283.410	9927.716	13.374
72.113	305.100	4372.996	10033.760	13.334
72.766	307.100	4317.276	10055.297	13.470
73.419	309.100	4257.811	9971.491	13.411
74.072	310.700	4280.112	9916.890	13.457
74.760	313.000	4330.875	10061.602	12.832
75.445	315.000	4287.308	10095.774	13.493
76.142	316.900	4358.222	10100.321	13.367
76.832	319.200	4303.287	10092.462	13.536
77.487	321.200	4270.603	10070.938	12.818
78.140	322.900	4330.803	10139.689	14.282
78.797	324.900	4316.288	10119.616	13.828
79.474	327.200	4290.302	10032.257	13.983
80.165	329.200	4319.277	10141.192	13.441
80.819	331.200	4322.837	10088.616	13.833
81.472	333.100	4261.870	10100.346	14.135
82.125	335.100	4293.471	10024.144	14.533
82.777	337.100	4301.612	10055.947	14.299
83.432	339.100	4244.299	10065.028	13.855
84.118	341.000	4308.445	10058.978	13.963
84.773	343.000	4355.485	10158.590	14.317
85.427	345.000	4244.211	10139.129	14.793
86.081	347.000	4298.658	10172.829	14.460
86.733	348.900	4326.009	10253.884	14.907
87.387	350.900	4311.084	10288.081	14.741
88.041	352.600	4275.042	10268.531	15.080
88.695	354.600	4316.249	10303.289	14.178
89.369	356.900	4222.619	10191.348	15.207
90.017	358.500	4221.194	10234.155	14.879
90.702	360.800	4245.226	10296.436	14.228
91.353	362.800	4213.518	10245.567	15.877
92.005	364.800	4148.823	10275.052	15.235
92.649	366.400	4195.726	10277.319	15.024
93.297	368.400	4184.359	10219.419	14.425
93.951	370.400	4087.201	10140.109	15.306
94.605	372.400	4145.904	10243.173	14.821
95.257	374.400	4169.996	10328.940	15.798
95.937	376.300	4092.781	10276.428	16.068
96.604	378.300	4102.351	10234.652	16.395
97.255	380.300	4113.203	10392.087	15.793
97.909	382.300	4042.221	10340.696	15.923
98.563	384.300	4063.380	10422.846	15.762
99.245	386.200	4109.884	10481.255	16.043
99.915	388.200	4087.184	10560.756	16.578
100.572	390.200	4082.232	10585.197	16.068
101.228	392.100	4085.208	10576.791	16.188
101.880	394.100	4057.761	10604.264	16.046
102.533	396.100	4019.361	10674.442	16.906
103.187	398.100	4094.619	10816.236	16.597
103.840	400.000	4065.970	10791.069	17.169
104.532	402.000	4030.932	10791.286	15.953
105.187	404.000	4105.608	10859.961	17.338
105.860	406.000	4038.814	10858.063	16.999
106.539	408.300	4012.408	10759.164	16.524
107.218	410.300	4094.522	10945.830	17.498
107.869	412.200	4011.148	10876.836	17.934
108.553	414.200	4022.369	10864.495	17.428
109.207	416.200	4070.872	10923.350	18.143
109.862	418.200	4039.431	10959.101	17.188
110.517	420.200	4008.015	10906.245	17.339
111.170	422.100	4090.392	10964.578	17.906
111.823	424.100	4026.153	10947.524	19.034
112.476	426.100	4011.995	10867.373	18.135
113.129	428.100	4034.490	10940.659	17.953
113.824	430.000	4032.093	10933.590	17.896
114.479	432.000	4000.400	10942.837	17.863
115.166	434.000	4082.168	11061.923	18.587
115.821	436.000	4060.971	11061.948	18.373
116.489	437.900	4029.866	11090.465	18.995
117.140	439.900	4043.110	11052.434	18.820
117.824	441.900	4019.533	11050.778	19.785
118.488	443.900	3973.048	11044.283	19.036
119.141	445.900	4053.984	11196.432	19.731
119.796	447.900	4060.433	11162.502	19.592
120.449	449.900	3962.756	11155.039	20.532
121.167	452.200	4045.711	11236.616	18.822
121.822	454.200	4075.830	11250.664	20.638
122.508	456.100	4019.768	11269.387	19.345
123.161	458.100	4046.538	11293.891	19.457
123.814	460.100	4021.651	11302.871	19.302
124.467	462.100	3974.810	11164.476	20.514
125.120	464.000	4021.050	11253.148	20.078
125.809	466.000	4045.757	11293.102	19.601
126.463	468.000	4024.236	11316.078	19.800
127.114	470.000	4065.649	11345.423	20.986
127.770	472.000	4075.937	11393.567	19.851
128.422	473.900	4015.867	11262.114	20.908
129.074	475.900	4035.311	11257.312	20.829
129.728	477.600	4042.074	11218.721	19.590
130.412	479.900	4019.571	11101.839	19.874
131.065	481.800	4018.386	11053.185	22.011
131.721	483.800	4075.609	11070.622	22.252
132.378	485.800	4004.277	11045.429	21.183
133.030	487.500	4002.675	10953.319	22.095
133.684	489.400	4058.044	10971.214	21.336
134.336	491.400	4026.241	10926.407	21.867
134.988	493.400	4000.645	10880.861	21.077
135.643	495.400	4022.298	10827.432	20.569
136.296	497.400	4055.405	10776.970	22.220
136.987	499.300	3993.921	10688.923	21.515
137.641	501.300	4013.492	10684.694	21.737
138.293	503.300	4004.902	10667.882	21.808
138.947	505.200	3948.931	10549.675	21.415
139.600	507.200	4028.014	10620.286	22.075
140.252	509.200	4010.582	10565.176	22.151
140.904	511.200	3982.974	10562.437	22.063
141.558	513.200	3955.814	10598.609	23.404
142.212	515.200	4037.608	10680.784	22.031
142.905	517.100	3961.916	10618.325	22.384
143.557	519.100	3984.664	10682.491	21.477
144.209	521.100	4016.281	10665.653	23.353
144.861	523.000	3968.936	10658.496	22.931
145.516	525.000	3953.082	10600.468	22.411
146.200	527.000	4015.276	10645.415	23.285
146.888	529.000	3971.986	10599.220	24.072
147.542	531.000	3976.641	10592.253	22.766
148.197	532.900	4011.757	10702.156	23.358
148.849	534.900	3979.834	10747.014	22.869
149.502	536.900	4018.860	10774.728	23.677
150.156	538.900	4054.795	10822.732	23.749
150.809	540.900	4031.851	10804.073	22.862
151.461	542.900	3977.832	10788.586	24.222
152.114	544.800	4041.397	10788.891	24.165
152.761	546.800	3993.420	10810.390	24.142
153.440	548.800	3981.875	10722.840	25.834
154.093	550.800	4003.277	10689.178	25.265
154.747	552.700	4029.512	10831.316	24.323
155.424	554.700	3946.828	10734.723	24.475
156.095	556.700	3991.017	10726.712	24.593
156.751	558.700	4019.098	10800.723	26.373
157.404	560.600	3946.327	10782.192	25.018
158.092	562.600	3979.375	10684.223	26.089
158.749	564.600	4017.830	10796.253	24.817
159.425	566.600	3969.337	10761.279	24.135
160.084	568.500	3998.053	10723.158	24.989
160.748	570.500	4005.999	10814.835	24.512
161.401	572.500	3948.256	10795.514	25.790
162.054	574.500	3973.037	10893.992	25.818
162.710	576.500	4007.042	10881.689	26.334
163.363	578.400	3942.085	10821.038	24.581
164.016	580.400	3940.442	10734.609	27.600
164.669	582.400	4005.296	10848.498	25.041
165.357	584.400	3954.860	10792.075	26.022
166.010	586.400	3938.242	10789.133	26.916
166.664	588.300	3981.914	10802.379	27.426
167.354	590.600	3964.742	10852.777	25.880
168.007	592.300	3932.335	10804.379	27.083
168.660	594.300	4002.304	10859.184	27.522
169.314	596.200	3995.491	10870.965	26.736
169.966	598.200	3937.497	10792.916	26.902
170.622	600.200	3984.488	10794.266	27.751
171.277	602.200	3996.798	10806.964	27.620
171.932	604.200	3922.136	10764.858	26.721
172.586	606.200	3924.067	10736.863	27.751
173.238	608.100	3969.873	10862.457	27.530
173.893	610.100	3936.210	10806.315	27.702
174.546	612.100	3931.251	10783.517	27.526
175.200	614.100	3972.790	10915.071	27.288
175.884	616.000	3950.863	10878.862	27.637
176.539	618.000	3950.938	10844.244	27.295
177.206	620.000	3983.859	10908.920	27.699
177.862	622.000	3918.603	10888.643	27.870
178.515	623.900	3948.347	10819.777	27.163
179.170	625.900	3968.248	10893.521	28.532
179.857	627.900	3944.902	10937.003	28.436
180.507	629.900	3944.509	10942.276	28.975
181.158	631.800	4005.264	10934.966	28.696
181.812	633.800	4007.986	10944.352	27.730
182.466	635.800	3956.310	10926.127	29.546
183.117	637.800	4020.371	11021.268	29.602
183.770	639.700	3976.541	10952.300	29.243
184.455	641.700	3954.684	10896.502	28.926
185.108	643.700	3989.433	10922.331	28.952
185.760	645.700	3982.964	10955.204	29.578
186.413	647.700	3914.454	10914.027	29.294
187.117	649.600	3990.830	10925.541	30.673
187.773	651.600	3988.751	10947.486	28.966
188.426	653.600	3958.742	10903.456	29.124
189.079	655.600	3933.107	10857.197	29.654
189.733	657.500	3946.902	10867.157	30.310
190.386	659.500	3913.055	10821.522	31.256
191.037	661.500	3880.863	10839.506	29.247
191.691	663.500	3996.412	10877.804	30.329
192.345	665.500	3886.523	10836.080	29.741
193.000	667.400	3921.349	10889.547	30.286
193.653	669.400	3978.170	10945.308	30.341
194.308	671.400	3951.357	10922.293	30.541
194.959	673.100	3920.590	10846.002	30.628
195.614	675.000	3968.239	10887.943	31.089
196.268	677.000	3949.802	10928.496	30.343
196.922	679.000	3918.353	10924.394	31.362
197.575	681.000	3929.151	10924.012	30.751
198.230	683.000	3998.958	10940.850	30.175
198.881	684.900	3923.083	10872.124	31.645
199.535	686.900	3911.413	10915.593	31.242
200.189	688.900	4010.821	11067.043	30.855
200.841	690.900	3951.619	11025.318	31.509
201.494	692.900	3926.371	10977.735	31.878
202.147	694.800	3957.096	10988.319	31.032
202.799	696.800	3967.922	11058.815	31.892
203.466	698.800	3962.757	11083.473	32.929
204.156	700.700	4008.425	11092.541	32.283
204.809	702.700	3961.416	11005.309	31.534
205.465	704.700	3918.284	10998.138	31.315
206.118	706.700	3971.544	11021.815	31.863
206.770	708.600	3990.339	11091.484	31.310
207.423	710.600	3927.215	11015.626	31.966
208.076	712.600	3926.446	10954.350	32.903
208.728	714.600	3983.160	11033.902	32.754
209.381	716.500	3897.557	10953.344	32.605
210.033	718.500	3940.899	11079.270	31.694
210.719	720.500	3961.698	11031.049	32.059
211.409	722.500	3915.298	10926.458	31.935
212.059	724.400	3911.822	10925.235	32.498
212.712	726.400	3937.816	10997.425	33.243
213.359	728.400	3895.629	10976.754	33.633
214.044	730.300	3887.528	10875.028	31.924
214.711	732.300	3933.706	10985.657	31.739
215.364	734.300	3908.535	10991.248	34.628
216.016	736.300	3889.967	10883.294	33.912
216.666	738.300	3934.573	10932.851	33.113
217.318	740.300	3945.329	10994.241	33.232
217.968	742.200	3887.285	10934.927	33.069
218.660	744.200	3946.285	11054.051	33.725
