Wed, Oct 25, 2017	11:26 AM
 Notes: GUA top chamber_1E-09 above base_ 60 sec_102517
 waiting time: 50.000
 time(s)	 temp (K)	 MS1=1.971	 MS2=27.883	 MS3=125.586	 MS4=29.015	 MS5=111.548	 MS6=84.866	 MS7=56.522	 MS8=125.586
0.000	103.100	3628.919	7711.090	8.654
0.763	103.100	3652.228	7740.995	8.675
1.407	103.100	3661.202	7730.004	8.976
2.050	103.100	3699.426	7742.256	8.960
2.733	103.100	3668.335	7720.120	8.988
3.386	103.100	3650.955	7655.050	8.833
4.062	103.100	3737.090	7729.660	8.974
4.749	103.100	3637.078	7699.767	9.309
5.433	103.100	3649.717	7650.923	9.033
6.092	103.100	3692.456	7699.589	8.746
6.771	103.100	3628.531	7719.216	8.891
7.412	103.100	3663.363	7736.869	8.734
8.063	103.100	3658.857	8185.905	9.090
8.767	103.200	3694.029	10358.157	8.803
9.436	103.300	3806.368	16585.861	9.175
10.117	103.600	4004.892	24903.462	8.854
10.798	104.100	4071.932	23628.238	9.370
11.453	104.800	4040.654	20387.869	9.132
12.105	105.700	4065.600	21279.522	9.578
12.790	107.400	4066.517	22786.550	9.343
13.441	109.200	4115.436	22797.427	9.518
14.126	111.500	4137.228	20661.193	9.153
14.811	114.200	4044.100	18381.827	8.969
15.495	117.100	4068.402	16528.712	9.249
16.151	120.200	4039.892	15130.912	9.094
16.803	123.300	3951.591	13960.789	8.928
17.455	126.400	3938.614	13403.442	9.468
18.108	129.400	3975.675	12885.782	8.869
18.761	132.200	3889.291	12436.555	9.052
19.446	134.900	3872.236	11972.235	9.117
20.100	137.500	3885.120	11820.658	9.334
20.765	140.000	3889.365	11760.211	9.488
21.437	142.400	3848.226	11513.595	9.467
22.107	144.800	3886.828	11357.714	9.532
22.790	147.500	3829.603	11119.619	9.705
23.454	149.900	3821.427	10789.655	9.090
24.106	152.200	3836.444	10789.948	9.439
24.787	154.600	3823.463	10657.451	9.357
25.454	156.900	3790.842	10379.733	9.424
26.152	159.200	3847.403	10261.348	9.632
26.803	161.500	3794.429	10095.748	9.407
27.475	163.800	3784.348	9927.487	9.257
28.127	166.000	3837.488	9926.557	9.537
28.808	168.200	3766.442	9788.150	8.999
29.469	170.400	3777.106	9761.518	9.732
30.136	172.600	3809.784	9703.478	9.706
30.819	175.000	3742.902	9558.194	9.268
31.476	177.100	3776.943	9490.449	10.338
32.128	179.200	3783.491	9497.301	9.262
32.827	181.300	3740.942	9362.180	9.728
33.479	183.400	3750.214	9304.127	10.170
34.151	185.400	3744.425	9279.482	9.858
34.803	187.500	3717.436	9185.691	9.537
35.454	189.500	3708.328	9191.397	9.727
36.139	191.500	3775.520	9244.342	9.356
36.825	193.600	3720.887	9097.631	10.020
37.528	195.900	3746.752	9142.527	9.556
38.180	197.900	3753.140	9125.269	9.878
38.834	199.600	3744.390	9113.641	9.685
39.488	201.700	3743.701	9041.565	10.014
40.140	203.700	3762.146	8966.000	9.569
40.791	205.700	3710.520	8946.831	10.156
41.475	207.700	3732.042	8885.136	9.871
42.140	210.000	3704.134	8868.184	9.862
42.792	211.700	3671.263	8785.754	9.406
43.465	214.000	3725.666	8821.645	10.170
44.123	216.000	3734.913	8824.536	9.187
44.815	218.000	3706.197	8808.998	9.790
45.503	220.000	3769.907	8833.413	10.198
46.169	222.000	3732.857	8786.900	10.391
46.861	224.000	3760.388	8808.030	9.516
47.543	226.300	3764.293	8731.063	9.750
48.195	228.300	3753.608	8699.248	9.771
48.848	230.200	3750.257	8677.022	10.077
49.500	231.900	3805.774	8690.982	10.286
50.153	233.900	3823.939	8753.250	10.472
50.804	235.900	3826.398	8686.715	10.087
51.455	237.900	3827.910	8674.552	10.124
52.107	239.900	3900.079	8696.675	9.860
52.757	241.800	3890.977	8702.877	9.988
53.408	243.800	3916.962	8683.327	10.669
54.060	245.800	3986.720	8665.127	9.683
54.712	247.800	3992.358	8657.510	10.805
55.363	249.700	4031.106	8638.520	10.538
56.014	251.700	4113.109	8675.214	10.572
56.698	253.700	4146.649	8726.988	10.493
57.358	255.700	4128.934	8662.312	10.546
58.010	257.700	4226.397	8656.173	10.002
58.678	259.700	4256.640	8699.018	10.572
59.368	261.600	4218.707	8653.103	10.668
60.020	263.600	4251.005	8677.723	10.253
60.673	265.600	4323.219	8706.915	10.123
61.325	267.600	4284.990	8750.817	10.409
61.979	269.500	4296.236	8764.127	10.790
62.631	271.500	4346.522	8818.932	10.512
63.316	273.500	4321.592	8784.009	10.278
64.002	275.500	4347.934	8787.779	10.482
64.679	277.400	4405.990	8864.669	10.846
65.333	279.400	4366.577	8870.782	10.242
66.020	281.800	4424.999	8810.577	10.456
66.672	283.800	4403.107	8783.270	10.175
67.320	285.400	4316.775	8795.866	11.105
67.968	287.400	4372.485	8836.139	10.470
68.620	289.400	4407.710	8841.132	10.907
69.305	291.400	4335.462	8736.043	11.149
69.979	293.700	4358.317	8765.095	10.858
70.655	295.700	4361.536	8813.761	11.121
71.308	297.600	4322.879	8882.194	11.149
71.962	299.600	4360.344	8923.766	10.561
72.649	301.600	4407.304	8967.796	11.470
73.302	303.500	4325.555	8953.314	11.314
73.957	305.500	4319.922	8949.570	11.114
74.610	307.500	4372.078	9022.690	11.237
75.295	309.500	4322.230	8989.333	10.700
75.962	311.400	4297.688	9033.490	11.450
76.656	313.400	4336.184	9064.032	10.613
77.308	315.400	4279.169	8988.849	11.199
77.978	317.400	4325.663	9007.572	10.673
78.668	319.700	4291.242	8981.576	11.274
79.331	321.700	4245.839	8962.255	10.993
79.984	323.700	4254.032	8891.390	12.033
80.638	325.600	4238.521	8944.017	11.458
81.291	327.300	4193.738	8903.578	10.953
81.975	329.600	4225.061	8928.656	11.238
82.628	331.500	4213.766	8920.454	11.572
83.281	333.500	4184.550	9016.513	11.283
83.934	335.200	4145.508	8922.148	11.954
84.619	337.500	4216.920	8983.844	11.293
85.308	339.500	4104.594	8956.116	11.510
85.963	341.400	4116.783	8988.556	11.469
86.617	343.400	4172.282	8975.552	11.832
87.299	345.400	4099.025	8975.832	11.784
87.952	347.400	4081.594	9009.100	11.963
88.635	349.400	4106.626	9025.695	11.436
89.288	351.400	4043.974	9000.375	11.503
89.956	353.300	4045.735	8991.371	11.073
90.623	355.300	4030.415	8978.622	11.463
91.307	357.300	3994.186	9016.678	11.264
91.959	359.300	3997.311	9093.097	11.548
92.611	361.300	3979.142	9056.021	11.517
93.266	363.200	3894.225	8993.065	11.488
93.918	365.200	3899.503	8995.345	11.870
94.571	367.200	3923.094	9041.068	11.390
95.237	369.200	3874.400	9068.834	12.246
95.890	371.100	3850.253	9051.576	11.696
96.546	373.100	3843.966	9057.346	11.962
97.236	375.100	3838.460	9099.299	11.785
97.889	377.100	3774.253	9047.806	12.127
98.543	379.100	3854.221	9093.759	11.990
99.196	381.000	3845.781	9173.578	11.907
99.849	383.000	3761.462	9062.784	12.434
100.503	385.000	3837.091	9182.889	12.479
101.183	387.000	3805.613	9194.390	12.275
101.836	388.900	3739.271	9170.802	12.354
102.489	390.900	3797.828	9207.355	12.262
103.181	392.900	3834.903	9358.295	12.270
103.836	394.900	3746.207	9316.583	12.650
104.489	396.800	3810.888	9343.814	12.111
105.140	398.800	3777.842	9470.541	12.434
105.792	400.800	3758.460	9449.947	12.617
106.444	402.800	3735.337	9437.236	12.432
107.098	404.800	3799.953	9444.037	12.855
107.775	406.700	3718.797	9461.155	12.097
108.428	408.700	3735.248	9449.310	12.442
109.081	410.700	3758.360	9444.317	13.001
109.734	412.700	3727.496	9529.690	13.599
110.387	414.600	3713.948	9455.436	12.964
111.042	416.600	3769.413	9564.791	13.251
111.697	418.600	3780.675	9634.803	13.153
112.350	420.600	3694.058	9586.150	13.002
113.035	422.500	3756.725	9617.686	13.353
113.689	424.500	3742.133	9607.178	12.864
114.342	426.500	3703.237	9636.064	12.763
114.994	428.500	3718.112	9561.925	13.243
115.682	430.500	3733.727	9599.192	12.776
116.363	432.400	3680.324	9578.750	13.253
117.016	434.400	3771.620	9762.257	12.963
117.669	436.400	3752.159	9743.802	13.776
118.321	438.400	3684.965	9741.904	14.039
118.997	440.400	3761.729	9809.140	13.811
119.651	442.300	3753.452	9811.382	13.903
120.331	444.300	3665.031	9781.986	13.567
120.986	446.300	3710.339	9754.717	13.478
121.670	448.600	3714.896	9816.170	14.150
122.322	450.300	3712.209	9868.492	14.149
122.972	452.300	3730.712	9833.467	13.869
123.625	454.200	3728.264	9846.623	13.858
124.279	456.200	3709.590	9823.545	13.749
124.956	458.200	3699.588	9870.428	13.736
125.611	460.200	3732.619	9891.608	13.944
126.312	462.500	3667.040	9836.472	14.094
126.993	464.500	3674.767	9859.844	13.632
127.643	466.400	3715.568	9841.057	14.452
128.291	468.400	3689.212	9803.141	14.026
128.945	470.400	3682.376	9788.953	13.774
129.600	472.400	3739.179	9802.046	13.530
130.253	474.400	3664.718	9723.220	15.089
130.907	476.000	3677.048	9588.010	14.158
131.561	478.000	3720.497	9598.466	14.156
132.213	479.900	3713.947	9606.809	14.998
132.868	481.900	3681.259	9527.715	14.448
133.522	483.900	3710.736	9508.560	14.378
134.174	485.900	3711.171	9495.276	14.677
134.827	487.900	3643.697	9363.759	14.439
135.481	489.900	3686.862	9366.536	14.663
136.135	491.800	3692.596	9373.209	14.508
136.788	493.800	3664.618	9332.950	14.656
137.439	495.800	3642.163	9316.316	15.498
138.093	497.800	3708.307	9340.299	14.716
138.782	499.700	3671.210	9309.132	14.282
139.435	501.700	3661.630	9284.347	15.258
140.088	503.700	3691.547	9320.379	15.022
140.766	505.700	3669.777	9295.135	14.991
141.421	507.700	3615.033	9193.498	15.548
142.074	509.600	3667.772	9156.117	15.031
142.728	511.600	3640.328	9190.531	15.042
143.381	513.600	3647.724	9198.898	15.605
144.034	515.500	3701.739	9249.781	15.281
144.715	517.500	3658.733	9182.176	15.820
145.369	519.500	3620.614	9177.234	15.108
146.021	521.500	3694.728	9174.355	15.570
146.672	523.500	3687.599	9181.220	15.173
147.325	525.500	3602.857	9109.731	15.925
147.979	527.500	3643.860	9157.199	15.694
148.633	529.400	3667.611	9128.313	15.718
149.286	531.400	3630.241	9097.771	15.639
149.935	533.000	3618.096	9175.209	15.821
150.624	535.300	3716.324	9282.373	16.068
151.277	537.300	3658.127	9253.168	16.036
151.947	539.300	3640.835	9222.079	16.038
152.602	541.300	3707.421	9279.673	16.855
153.254	543.300	3639.418	9332.517	16.072
153.907	545.300	3662.968	9283.316	15.180
154.559	547.200	3693.527	9277.635	16.350
155.215	548.900	3681.524	9264.631	15.526
155.868	550.800	3643.048	9264.950	15.672
156.519	552.800	3728.738	9388.914	16.180
157.174	554.800	3714.888	9374.190	16.330
157.828	556.800	3656.190	9303.210	16.407
158.483	558.700	3665.685	9258.913	17.003
159.138	560.700	3718.607	9269.000	17.584
159.791	562.700	3657.902	9289.760	17.018
160.443	564.700	3635.233	9272.808	17.035
161.138	566.600	3712.715	9394.186	16.408
161.798	568.600	3714.884	9387.143	16.983
162.450	570.600	3933.502	9336.643	17.484
163.103	572.600	4792.861	9389.321	17.886
163.772	574.600	5741.183	9360.384	17.993
164.425	576.600	5896.024	9351.277	17.743
165.078	578.500	6806.882	9331.077	17.417
165.769	580.500	7537.404	9277.686	17.565
166.422	582.500	7770.654	9332.555	18.219
167.075	584.500	7870.910	9357.773	17.846
167.761	586.800	7827.932	9300.663	17.027
168.445	588.800	7767.131	9271.280	17.733
169.098	590.800	7908.604	9247.985	17.268
169.765	592.700	7719.880	9293.428	17.911
170.418	594.700	7884.138	9334.121	18.238
171.071	596.700	7966.709	9344.527	18.489
171.724	598.600	7891.231	9356.130	18.661
172.378	600.600	7900.362	9387.729	18.158
173.033	602.200	7976.396	9367.453	18.335
173.688	604.200	8047.614	9433.657	17.570
174.342	606.200	7879.996	9387.321	18.258
174.992	608.200	7973.679	9381.450	18.936
175.643	610.200	8098.447	9471.802	18.177
176.325	612.200	8012.119	9505.376	19.382
176.995	614.100	10312.589	9437.720	18.587
177.648	616.100	10439.807	9549.138	18.371
178.302	618.100	10439.807	9510.674	19.564
178.993	620.400	10439.807	9450.622	18.493
179.647	622.400	10439.807	9501.809	19.223
180.299	624.300	10439.807	9542.732	19.596
180.954	626.000	10439.807	9464.059	19.196
181.607	628.000	10439.807	9514.431	19.233
182.260	630.000	10439.807	9574.917	19.210
182.941	632.300	10439.807	9540.656	19.031
183.594	633.900	10439.807	9530.314	19.241
184.248	635.900	10439.807	9550.756	20.218
184.901	637.900	10439.807	9548.017	19.521
185.554	639.800	10439.807	9536.376	20.255
186.206	641.800	10439.807	9514.966	19.307
186.859	643.800	10439.807	9486.984	20.386
187.536	645.800	10439.807	9526.454	19.959
188.183	647.800	10439.807	9488.869	19.944
188.832	649.700	6160.827	9539.038	19.832
189.527	651.700	4175.259	9567.835	20.076
190.184	653.700	3842.902	9509.018	20.483
190.836	655.700	3763.333	9526.671	20.172
191.488	657.600	3777.780	9557.149	19.935
192.143	659.600	3815.877	9583.947	20.225
192.794	661.600	3712.738	9563.963	20.108
193.476	663.600	3777.889	9676.070	18.381
194.129	665.600	3791.447	9697.365	20.870
194.781	667.600	3752.670	9699.352	19.461
195.457	669.500	3726.528	9686.284	21.082
196.111	671.500	3779.486	9692.996	20.763
196.764	673.500	3689.798	9591.882	22.416
197.418	675.500	3719.878	9626.945	20.719
198.070	677.400	3756.295	9649.705	20.345
198.722	679.400	3719.867	9647.616	21.536
199.376	681.400	3698.154	9601.192	20.311
200.065	683.400	3754.790	9624.487	21.462
200.718	685.300	3716.652	9566.014	21.039
201.371	687.300	3679.085	9535.306	21.714
202.056	689.300	3744.083	9596.620	20.983
202.711	691.300	3739.546	9654.367	21.658
203.361	693.300	3702.427	9611.840	21.020
204.014	695.200	3738.137	9648.113	21.330
204.667	697.200	3753.203	9689.456	21.653
205.319	699.200	3689.310	9630.855	21.358
205.971	701.100	3710.703	9632.345	20.699
206.623	703.100	3721.017	9623.392	21.182
207.275	705.100	3675.451	9633.377	21.959
207.927	707.100	3665.759	9581.667	22.803
208.581	709.000	3727.273	9637.134	22.309
209.235	711.000	3665.690	9629.390	22.341
209.887	713.000	3665.615	9617.864	21.857
210.540	714.600	3702.486	9615.737	22.859
211.195	716.600	3711.447	9578.355	22.594
211.846	718.600	3685.778	9640.624	21.496
212.499	720.500	3710.059	9624.054	22.489
213.153	722.500	3726.661	9697.594	22.052
213.807	724.500	3694.639	9694.397	22.854
214.460	726.500	3705.871	9759.977	21.950
215.114	728.500	3723.819	9750.705	23.774
215.799	730.500	3674.805	9717.043	22.872
216.454	732.400	3673.857	9700.918	23.039
217.105	734.400	3695.311	9647.069	22.989
217.758	736.400	3679.087	9735.090	22.003
218.410	738.300	3676.205	9692.232	23.291
219.063	740.300	3744.507	9828.512	22.142
219.715	742.300	3730.120	9785.590	23.022
220.403	744.300	3721.064	9854.724	23.593
221.056	746.300	3735.118	9858.264	23.733
221.709	748.300	3749.030	9908.561	24.086
222.361	750.200	3704.974	9897.314	23.283
223.015	752.200	3767.830	9948.655	23.757
223.708	754.200	3737.120	9885.419	23.846
224.362	756.100	3701.394	9864.773	23.333
225.014	758.100	3728.626	9842.853	24.403
225.663	760.100	3774.196	9935.129	24.032
226.316	761.900	3693.109	9876.860	24.826
226.968	762.700	3696.041	9838.090	23.906
227.620	762.000	3761.429	9851.157	25.656
228.273	760.100	3690.211	9784.126	24.563
228.929	757.000	3713.189	9771.962	24.506
229.623	753.100	3726.878	9757.812	24.523
230.275	748.600	3692.968	9774.102	24.193
230.930	743.600	3712.374	9827.748	24.129
231.584	738.400	3759.014	9799.422	25.600
232.236	732.800	3696.994	9791.080	24.894
232.888	727.200	3722.264	9809.420	25.280
233.541	721.400	3750.669	9860.684	25.208
234.195	716.600	3756.042	9855.220	25.857
234.848	710.800	3697.306	9781.387	26.237
235.502	704.900	3777.688	9819.406	25.246
236.154	699.100	3792.104	9831.862	25.287
236.808	693.400	3717.206	9856.825	26.331
237.462	687.600	3743.491	9873.828	24.822
238.113	682.000	3786.582	9877.522	25.334
238.768	676.400	3742.987	9849.565	25.278
239.422	670.800	3694.937	9781.540	25.414
240.075	665.300	3777.674	9881.088	25.924
240.730	659.900	3751.027	9849.438	25.678
241.382	654.500	3708.124	9842.357	25.450
242.072	649.200	3758.241	9825.175	26.711
242.726	644.000	3712.128	9814.464	25.847
243.380	638.800	3696.376	9782.075	25.319
244.034	633.700	3749.529	9760.869	25.636
244.688	628.700	3798.521	9892.513	27.363
245.342	623.700	3699.955	9835.173	26.555
245.998	618.800	3725.281	9721.016	26.206
246.653	613.900	3738.265	9778.878	26.065
247.307	609.100	3695.596	9810.923	25.185
247.962	604.400	3690.632	9773.096	26.895
248.608	600.500	3727.450	9748.655	27.368
249.257	595.900	3691.410	9727.270	27.223
249.909	591.300	3667.034	9680.273	27.592
250.592	586.000	3739.155	9695.123	27.099
251.244	582.300	3673.869	9660.633	26.648
251.898	577.900	3689.215	9683.877	25.840
252.550	573.500	3736.654	9718.456	26.583
253.203	569.200	3734.919	9685.367	26.233
253.856	564.900	3661.579	9710.089	26.967
254.511	560.700	3741.002	9677.458	27.114
255.165	556.500	3736.375	9768.230	26.008
255.851	552.400	3696.962	9760.882	25.757
256.503	548.300	3719.564	9781.693	26.467
257.155	544.300	3760.957	9716.393	27.291
257.808	540.300	3662.167	9726.417	27.505
258.463	536.300	3683.538	9694.779	26.088
259.116	532.400	3756.935	9787.093	26.790
259.770	528.500	3671.710	9746.846	27.127
260.426	524.600	3693.244	9691.200	27.611
261.080	520.800	3737.464	9754.590	27.302
261.733	517.100	3699.706	9736.746	27.006
262.386	513.400	3704.475	9768.383	26.526
263.038	509.700	3780.122	9833.645	27.160
263.737	506.000	3706.103	9810.783	27.711
264.391	502.400	3701.325	9817.826	27.453
265.044	498.800	3713.142	9720.876	27.255
265.699	495.300	3777.990	9810.070	27.803
266.382	491.800	3670.703	9741.624	27.564
267.036	488.300	3746.844	9787.615	27.847
267.689	484.800	3730.078	9731.460	27.593
268.345	481.400	3684.093	9770.345	27.286
268.999	478.100	3739.410	9733.358	27.882
269.651	474.700	3749.906	9785.106	28.524
270.342	471.400	3683.986	9751.622	28.254
270.996	468.100	3694.670	9696.142	28.329
271.649	464.900	3727.937	9655.080	27.758
272.302	461.700	3632.038	9636.446	27.142
272.954	458.500	3683.707	9678.426	27.978
273.609	455.400	3724.087	9698.320	27.852
274.279	452.200	3651.117	9653.704	28.931
274.933	449.200	3645.808	9599.116	26.678
275.659	446.100	3745.898	9750.667	28.165
276.338	442.600	3667.276	9731.078	28.160
276.992	439.600	3696.516	9722.099	28.485
277.647	436.600	3711.010	9714.343	28.685
278.317	433.700	3669.476	9661.614	27.685
278.971	430.700	3681.158	9657.500	28.699
279.625	428.300	3718.295	9716.087	28.780
280.276	425.400	3658.768	9748.642	30.286
280.964	422.000	3709.907	9782.317	28.605
281.618	419.200	3749.548	9768.549	29.155
282.270	416.400	3653.259	9755.825	28.015
282.923	414.000	3658.476	9703.376	28.955
283.577	411.200	3724.583	9701.925	27.867
284.231	408.400	3730.903	9785.361	28.761
284.884	405.700	3657.644	9719.679	30.054
285.540	403.000	3726.993	9766.218	30.254
286.194	400.300	3724.434	9726.162	28.498
286.845	397.600	3657.597	9697.365	27.574
287.501	394.900	3726.918	9792.315	30.147
288.157	392.300	3732.760	9841.210	28.621
288.812	389.700	3664.978	9747.355	29.564
289.466	387.100	3656.456	9685.558	28.479
290.117	384.500	3719.345	9712.330	29.058
290.770	381.900	3659.303	9745.738	29.008
291.424	379.400	3693.983	9821.431	29.301
292.077	376.900	3723.740	9814.362	29.590
292.731	374.400	3731.202	9761.760	30.200
293.387	372.000	3670.739	9780.215	29.054
294.041	369.600	3717.857	9824.819	29.992
294.694	367.600	3729.396	9850.406	29.655
295.348	365.200	3703.982	9845.146	28.783
296.001	362.800	3727.580	9883.342	29.514
296.654	360.500	3742.733	9903.428	30.521
297.310	358.100	3676.508	9812.961	28.830
297.960	355.800	3639.128	9715.069	29.748
298.617	353.600	3712.381	9787.857	29.145
299.289	351.300	3678.844	9773.924	28.277
299.967	349.100	3666.820	9703.695	29.525
300.618	346.900	3692.300	9700.765	30.492
301.272	344.700	3669.408	9702.752	29.211
301.971	342.100	3695.335	9748.782	30.777
302.622	340.000	3736.738	9794.569	30.278
303.276	337.800	3646.702	9729.486	29.944
303.968	335.700	3696.428	9742.719	29.416
304.623	333.600	3723.345	9725.691	30.506
305.278	331.500	3676.060	9699.976	29.733
305.932	329.500	3638.021	9684.819	29.752
306.587	327.400	3716.167	9749.024	29.691
307.238	325.400	3667.185	9689.799	28.910
307.890	323.700	3642.343	9673.509	30.772
308.574	321.400	3687.445	9678.005	29.506
309.220	319.400	3680.080	9669.689	29.578
309.910	317.500	3661.138	9676.133	30.175
310.564	315.500	3690.917	9690.462	30.695
311.218	313.600	3712.350	9679.050	30.411
311.869	311.700	3649.925	9703.695	28.946
312.522	309.800	3723.932	9746.515	28.943
313.174	308.300	3701.911	9688.908	31.051
313.828	306.400	3647.935	9703.313	31.935
314.482	304.500	3676.670	9701.262	30.462
315.169	302.400	3733.015	9718.329	30.882
315.823	300.600	3666.137	9706.471	30.673
316.478	298.800	3695.907	9753.482	31.402
317.134	297.300	3705.368	9726.506	30.104
317.787	295.500	3658.188	9725.653	29.834
318.442	293.800	3673.887	9642.700	30.370
319.098	292.100	3675.940	9678.617	31.498
319.751	290.300	3682.205	9675.216	30.577
320.405	288.600	3642.676	9630.588	31.539
321.093	287.000	3737.822	9684.208	31.754
321.757	285.300	3658.854	9677.623	31.428
322.412	283.600	3646.527	9596.416	31.096
323.063	282.000	3670.686	9568.345	30.644
323.717	280.400	3691.318	9585.182	32.038
324.412	278.500	3605.426	9536.427	30.431
325.105	276.900	3697.056	9575.999	31.128
325.758	275.300	3616.610	9586.176	31.438
326.414	273.800	3643.127	9601.256	30.710
327.070	272.200	3680.413	9605.981	31.782
327.724	270.700	3697.053	9641.044	31.832
328.411	269.200	3641.961	9628.206	31.687
329.067	267.700	3731.814	9673.446	30.430
329.761	266.200	3669.206	9697.148	30.918
330.461	264.500	3677.535	9638.344	29.914
331.127	263.000	3694.911	9646.228	30.979
331.800	261.500	3665.547	9629.913	30.486
332.498	260.100	3690.074	9667.829	31.551
333.163	258.600	3714.934	9664.225	32.201
333.860	257.000	3650.113	9600.581	31.269
334.547	255.600	3744.535	9665.626	31.418
335.246	254.200	3643.586	9639.045	32.007
335.902	252.800	3649.887	9629.314	30.603
336.570	251.400	3673.325	9617.482	29.930
337.262	250.100	3648.314	9605.739	32.182
337.948	248.500	3634.382	9592.671	32.238
338.636	247.200	3691.672	9623.876	30.572
339.290	245.900	3617.395	9576.700	32.597
339.976	244.600	3669.261	9594.760	31.089
340.660	243.300	3687.437	9570.586	30.989
341.323	242.000	3631.274	9554.093	31.198
341.998	240.500	3643.087	9494.779	31.893
342.689	239.300	3678.393	9516.367	31.362
343.355	238.000	3601.198	9525.397	31.258
344.028	236.800	3690.288	9584.125	31.770
344.719	235.500	3660.350	9537.128	31.748
345.374	234.300	3611.015	9604.835	30.823
346.027	233.100	3722.335	9634.714	31.954
346.681	231.900	3706.892	9652.380	32.552
347.335	230.700	3643.366	9648.890	30.706
348.010	229.600	3735.656	9677.203	32.687
348.663	228.400	3680.179	9618.093	32.938
349.319	227.200	3639.015	9612.438	31.463
349.972	226.100	3655.333	9622.322	31.552
350.625	225.000	3687.957	9600.924	32.740
351.280	223.800	3659.515	9635.478	32.043
351.934	222.700	3662.367	9637.249	30.833
352.586	221.600	3707.473	9581.667	33.039
353.239	220.500	3670.176	9598.734	32.786
353.893	219.400	3658.358	9638.038	30.487
354.546	218.300	3702.938	9655.296	31.857
355.200	217.300	3705.440	9582.635	32.792
355.855	216.400	3630.942	9546.132	33.531
356.507	215.300	3697.409	9566.116	31.256
357.162	214.300	3724.939	9665.562	31.852
357.816	213.300	3658.133	9671.421	31.343
358.468	212.200	3689.143	9650.418	32.291
359.122	211.200	3699.863	9655.296	32.710
359.776	210.200	3686.769	9683.457	32.017
360.430	209.200	3620.546	9665.740	31.907
361.085	208.200	3715.804	9658.875	33.028
361.736	207.300	3664.684	9629.480	32.405
362.388	206.300	3638.653	9568.128	32.111
363.043	205.300	3688.371	9550.297	32.735
363.699	204.400	3729.179	9589.500	32.280
364.351	203.400	3652.347	9600.924	33.101
365.006	202.500	3722.698	9608.375	32.471
365.661	201.600	3680.939	9554.678	32.343
366.316	200.700	3632.756	9571.783	32.414
366.968	199.700	3658.495	9536.096	31.753
367.619	199.000	3699.416	9566.460	33.060
368.274	198.100	3639.357	9552.984	32.145
368.930	197.200	3600.842	9527.231	31.790
369.573	196.300	3676.122	9522.302	32.753
370.227	195.500	3654.128	9525.041	32.289
370.883	194.600	3636.805	9573.961	32.940
371.584	193.700	3668.570	9516.431	32.953
372.280	192.700	3640.346	9492.512	33.610
372.936	191.900	3618.192	9506.598	31.763
373.607	191.100	3693.035	9510.101	32.606
374.297	190.200	3593.406	9462.416	32.631
374.957	189.400	3600.065	9416.488	32.596
375.615	188.600	3667.662	9512.457	32.275
376.310	187.800	3687.178	9567.721	33.018
376.970	187.000	3665.600	9580.508	32.018
377.637	186.100	3724.727	9598.797	32.864
378.318	185.300	3635.028	9552.551	33.771
379.014	184.500	3703.482	9486.908	33.572
379.668	183.800	3690.019	9504.981	33.005
380.359	183.000	3666.205	9534.211	32.213
381.013	182.300	3695.156	9524.531	32.568
381.707	181.500	3710.631	9510.941	32.291
382.396	180.600	3633.367	9507.299	32.811
383.055	179.900	3704.886	9596.798	34.018
383.715	179.200	3687.848	9559.709	32.862
384.398	178.400	3678.703	9557.557	31.920
385.109	177.700	3697.736	9533.893	33.225
385.767	177.000	3651.047	9506.445	33.327
386.437	176.200	3631.167	9492.868	32.694
387.091	175.600	3714.265	9562.142	32.294
387.745	174.900	3666.384	9538.898	32.692
388.453	174.100	3664.611	9501.262	33.293
389.108	173.500	3701.712	9473.076	33.053
389.761	172.800	3628.519	9482.896	33.972
390.460	172.100	3639.887	9524.901	33.571
391.115	171.500	3721.826	9587.411	34.173
391.769	170.800	3648.300	9585.386	32.867
392.422	170.200	3663.168	9551.876	32.936
393.074	169.600	3735.584	9551.991	34.270
393.728	168.900	3687.746	9606.592	33.917
394.382	168.300	3671.629	9598.466	33.828
395.038	167.700	3713.806	9564.256	33.367
395.692	167.000	3723.163	9537.701	33.972
396.345	166.400	3649.735	9561.008	33.153
396.997	165.800	3699.045	9528.887	33.330
397.648	165.300	3721.309	9549.571	34.257
398.303	164.700	3661.553	9527.142	33.695
398.957	164.100	3634.859	9517.259	33.343
399.612	163.500	3704.573	9531.205	34.379
400.267	163.000	3634.770	9558.589	33.436
400.921	162.400	3644.451	9580.228	33.485
401.574	161.800	3717.484	9549.813	33.686
402.229	161.200	3671.775	9493.900	32.638
402.883	160.700	3654.813	9524.073	33.774
403.539	160.100	3710.420	9557.340	33.185
404.194	159.600	3719.889	9496.396	33.442
404.847	159.000	3630.323	9529.690	32.704
405.502	158.500	3710.573	9584.240	34.061
406.156	157.900	3697.340	9549.698	33.545
406.808	157.400	3659.547	9524.289	33.220
407.464	156.900	3683.941	9538.376	33.004
408.145	156.400	3690.248	9517.157	33.735
408.799	155.800	3656.211	9449.615	34.361
409.450	155.300	3668.505	9547.406	32.654
410.105	154.800	3727.049	9537.115	33.148
410.759	154.300	3662.000	9494.881	34.406
411.413	153.800	3677.458	9567.440	34.048
412.069	153.300	3729.247	9545.941	34.886
412.724	152.900	3698.658	9516.966	34.383
413.377	152.400	3642.786	9454.901	33.560
414.033	151.900	3711.246	9511.629	33.139
414.687	151.500	3703.578	9521.207	34.578
415.343	151.000	3661.197	9498.804	33.642
415.999	150.500	3697.433	9509.782	33.155
416.653	150.100	3677.129	9528.798	34.452
417.306	149.600	3691.070	9516.851	35.098
417.961	149.100	3657.229	9499.555	34.766
418.614	148.700	3726.659	9535.434	34.461
419.268	148.300	3641.921	9495.492	34.564
419.921	147.800	3641.338	9493.926	34.695
420.574	147.400	3730.280	9515.578	33.517
421.227	146.900	3680.178	9447.539	33.329
421.881	146.500	3671.131	9482.234	34.871
422.535	146.100	3721.506	9485.672	33.872
423.190	145.700	3706.257	9473.522	34.614
423.845	145.200	3637.325	9412.400	33.795
424.497	144.800	3697.160	9446.813	34.691
425.152	144.500	3691.693	9496.817	34.772
425.808	144.100	3673.770	9482.768	33.686
426.461	143.700	3657.455	9475.216	33.906
427.115	143.300	3729.943	9489.939	34.108
427.767	142.900	3598.961	9405.000	34.005
428.464	142.400	3650.804	9441.273	33.942
429.118	142.000	3699.992	9465.791	33.921
429.765	141.700	3622.392	9412.158	33.437
430.415	141.300	3652.350	9415.902	33.385
431.070	140.900	3724.893	9489.022	34.932
431.761	140.500	3687.229	9435.491	35.340
432.450	140.100	3665.436	9452.061	34.002
433.106	139.800	3708.185	9454.137	33.776
433.761	139.400	3667.101	9432.918	35.031
434.414	139.000	3649.972	9453.118	34.254
435.064	138.700	3706.597	9461.422	33.984
435.717	138.300	3701.757	9420.946	34.069
436.371	138.000	3638.754	9450.201	33.609
437.027	137.700	3744.755	9486.564	33.423
437.682	137.300	3714.088	9508.891	34.125
438.336	137.000	3678.471	9477.203	34.411
438.990	136.700	3678.735	9421.060	34.139
439.680	136.300	3726.570	9473.929	33.085
440.335	136.000	3673.449	9518.252	33.520
440.990	135.700	3719.135	9485.851	34.094
441.643	135.400	3738.341	9505.146	34.452
442.295	135.000	3684.191	9433.504	33.814
442.948	134.700	3655.603	9440.789	33.772
443.623	134.400	3715.391	9503.847	34.456
444.276	134.100	3676.490	9468.937	34.856
444.931	133.800	3656.694	9499.466	34.156
445.585	133.500	3743.012	9509.515	34.668
446.241	133.200	3704.467	9545.623	34.615
446.897	132.900	3678.783	9492.499	33.706
447.551	132.600	3725.561	9527.805	34.806
448.207	132.300	3784.190	9585.131	34.947
448.862	132.000	3688.622	9542.617	34.619
449.515	131.700	3738.998	9542.884	34.761
450.168	131.400	3736.235	9540.910	33.199
450.824	131.100	3694.441	9551.291	32.249
451.478	130.800	3718.663	9544.209	33.767
452.133	130.500	3719.709	9527.715	34.340
452.788	130.300	3659.895	9498.804	34.246
453.444	130.000	3667.684	9505.337	35.531
454.098	129.700	3724.205	9487.850	33.284
454.751	129.500	3660.054	9484.972	34.905
455.407	129.200	3716.464	9534.899	34.284
456.061	129.000	3738.840	9525.295	33.087
456.713	128.700	3740.334	9556.754	33.863
457.367	128.400	3708.418	9586.278	33.672
458.020	128.200	3759.961	9588.392	34.563
458.675	127.900	3753.603	9574.929	35.161
459.364	127.700	3675.002	9546.527	34.000
460.020	127.400	3757.581	9593.576	34.977
460.676	127.200	3743.042	9589.220	35.093
461.328	126.900	3713.932	9616.832	35.774
461.982	126.700	3723.296	9560.040	34.177
462.635	126.500	3770.701	9592.302	35.347
463.308	126.200	3687.653	9556.474	35.957
463.961	126.000	3681.416	9539.255	34.770
464.615	125.800	3751.080	9584.329	34.847
465.270	125.500	3728.346	9609.458	36.118
465.924	125.300	3676.492	9593.257	34.611
466.579	125.100	3746.254	9571.236	34.367
467.232	124.900	3721.355	9543.610	35.338
467.886	124.700	3695.533	9579.260	34.709
468.539	124.400	3763.799	9578.050	33.453
469.196	124.200	3703.009	9523.818	34.141
469.852	124.000	3710.380	9580.495	33.592
470.505	123.800	3753.620	9601.077	33.988
471.162	123.600	3795.021	9653.577	34.615
471.815	123.400	3705.131	9592.875	36.590
472.502	123.200	3776.922	9630.460	32.683
473.158	123.000	3740.952	9585.182	34.154
473.811	122.800	3728.446	9629.429	35.298
474.466	122.600	3717.948	9583.234	35.347
475.116	122.400	3736.389	9573.197	34.852
475.770	122.200	3688.393	9607.955	34.873
476.424	122.000	3716.661	9629.607	34.699
477.079	121.800	3801.290	9656.315	35.304
477.731	121.600	3719.140	9624.245	34.774
478.384	121.400	3717.795	9620.742	33.713
479.038	121.200	3729.466	9584.800	34.091
479.691	121.100	3756.992	9566.039	35.166
480.346	120.900	3675.912	9549.278	35.605
481.002	120.700	3729.005	9537.968	35.663
481.655	120.500	3745.251	9512.317	35.869
482.310	120.400	3657.279	9484.666	35.112
482.963	120.200	3699.466	9501.020	33.587
483.616	120.000	3747.207	9586.278	34.885
484.269	119.900	3740.603	9616.998	35.365
484.923	119.700	3693.766	9673.815	35.687
485.580	119.500	3792.584	9628.040	34.624
486.305	119.300	3730.655	9596.008	35.630
486.957	119.200	3728.749	9658.964	33.772
487.612	119.000	3775.265	9618.908	35.017
488.266	118.800	3740.990	9657.194	34.719
488.922	118.700	3703.105	9615.610	34.800
489.578	118.500	3788.522	9652.800	34.966
490.221	118.400	3756.424	9648.648	35.163
490.868	118.200	3745.025	9696.703	35.001
491.523	118.100	3779.476	9691.672	35.294
492.176	117.900	3781.680	9665.256	34.460
492.830	117.800	3741.477	9668.784	34.842
493.482	117.600	3744.997	9600.823	36.110
494.137	117.500	3774.578	9583.526	34.789
494.790	117.300	3681.298	9556.691	35.393
495.442	117.200	3716.748	9606.146	34.498
496.096	117.100	3752.528	9668.568	36.206
496.747	116.900	3736.205	9608.847	34.294
497.399	116.800	3725.777	9618.730	34.704
498.053	116.600	3787.579	9630.868	35.817
498.706	116.500	3755.674	9612.476	35.477
499.360	116.400	3682.213	9571.796	35.654
500.012	116.200	3766.375	9609.127	35.374
500.697	116.100	3759.202	9596.136	35.787
501.349	116.000	3694.942	9590.786	36.062
502.023	115.800	3738.065	9614.272	35.043
502.677	115.700	3768.741	9618.093	35.882
503.361	115.600	3722.487	9597.664	35.605
504.013	115.400	3777.789	9572.140	34.965
504.667	115.300	3738.415	9541.827	36.174
505.320	115.200	3707.371	9507.082	33.224
505.974	115.100	3718.843	9520.481	35.382
506.627	114.900	3748.845	9508.865	34.426
507.274	114.800	3705.230	9517.106	35.527
507.925	114.700	3703.419	9480.718	35.062
508.578	114.500	3743.906	9435.032	35.975
509.230	114.400	3722.747	9473.242	34.541
509.884	114.300	3728.125	9525.194	35.508
510.537	114.200	3769.092	9519.411	34.370
511.191	114.100	3726.408	9472.961	34.921
511.843	114.000	3681.417	9510.929	33.167
512.488	113.900	3692.017	9500.243	35.272
513.134	113.800	3760.357	9542.069	34.416
513.785	113.700	3689.131	9561.199	36.776
514.431	113.600	3700.141	9542.923	34.917
515.080	113.500	3754.853	9590.863	35.047
515.726	113.400	3783.333	9581.425	34.494
516.380	113.300	3710.832	9540.363	35.186
517.032	113.200	3745.800	9539.598	33.469
517.685	113.100	3779.453	9609.343	36.851
518.338	113.000	3724.664	9577.324	35.402
518.991	112.900	3748.549	9623.888	35.505
519.643	112.800	3766.075	9610.107	34.626
520.297	112.700	3706.509	9628.168	35.343
520.952	112.600	3731.675	9657.245	34.912
521.606	112.500	3777.217	9655.717	35.158
522.260	112.400	3711.939	9633.160	36.620
522.914	112.300	3715.222	9608.808	34.044
523.567	112.200	3775.285	9664.212	36.345
524.219	112.200	3787.017	9672.108	35.937
524.870	112.100	3733.626	9692.894	35.755
525.523	112.000	3813.894	9688.105	34.617
526.174	111.900	3792.058	9662.365	35.045
526.826	111.800	3706.562	9582.571	34.046
527.478	111.700	3714.593	9584.507	35.137
528.132	111.600	3746.263	9549.648	35.242
528.826	111.500	3720.680	9580.342	34.902
529.478	111.500	3721.641	9618.284	34.730
530.126	111.400	3790.484	9664.849	36.704
530.779	111.300	3682.168	9572.662	35.392
531.431	111.200	3721.471	9533.179	34.986
532.084	111.100	3810.567	9640.458	34.672
532.739	111.100	3783.440	9745.267	35.974
533.392	111.000	3736.846	9694.410	35.526
534.044	110.900	3799.784	9631.976	35.630
534.698	110.800	3761.421	9606.707	35.549
535.350	110.800	3750.484	9627.709	35.245
536.001	110.700	3773.192	9655.882	34.763
536.653	110.600	3786.510	9621.876	34.998
537.304	110.600	3736.823	9637.516	34.550
537.957	110.500	3719.491	9605.497	36.166
538.613	110.400	3759.891	9551.838	35.186
539.264	110.300	3711.337	9631.237	35.880
539.917	110.300	3725.873	9597.460	34.896
540.569	110.200	3777.763	9590.149	35.575
541.222	110.100	3804.412	9674.095	34.526
541.875	110.100	3741.886	9730.671	35.520
542.564	110.000	3814.862	9704.510	34.251
543.217	110.000	3818.051	9767.122	35.193
543.870	109.900	3750.594	9721.055	35.433
544.561	109.800	3820.693	9723.003	33.684
545.215	109.800	3806.183	9686.106	36.567
545.868	109.700	3716.786	9656.863	35.084
546.522	109.600	3778.721	9633.301	36.634
547.176	109.600	3782.835	9656.188	35.313
547.827	109.500	3756.793	9672.694	35.701
548.480	109.500	3764.753	9658.493	34.718
549.133	109.400	3787.305	9651.030	35.774
549.784	109.400	3750.043	9668.109	34.425
550.429	109.300	3719.416	9713.413	36.592
551.080	109.200	3818.911	9730.454	35.000
551.731	109.200	3807.194	9710.916	36.229
552.383	109.100	3735.884	9681.737	36.752
553.036	109.100	3810.042	9686.450	36.240
553.689	109.000	3800.675	9689.366	36.511
554.341	109.000	3744.117	9654.405	34.379
554.995	108.900	3841.799	9663.550	34.682
555.645	108.900	4217.596	9663.906	35.174
556.300	108.900	4217.605	9720.061	35.985
556.953	108.800	4272.829	9753.342	35.401
557.608	108.800	4566.212	9836.001	35.514
558.261	108.700	4594.951	9747.152	36.488
558.915	108.700	4643.335	9764.537	35.275
559.569	108.600	4789.130	9707.630	35.657
560.221	108.600	5040.293	9726.837	35.714
560.874	108.500	5155.053	9755.902	35.229
561.567	108.500	5444.859	9805.001	33.585
562.221	108.400	5496.049	9793.194	36.797
562.875	108.400	6339.962	9774.471	34.544
563.528	108.400	6546.541	9800.123	35.519
564.183	108.300	6625.704	9841.083	34.541
564.836	108.300	6573.220	9834.422	34.102
565.488	108.200	6629.966	9909.873	34.491
566.142	108.200	6682.821	9900.409	35.127
566.795	108.200	6512.591	9807.446	34.861
567.448	108.100	6500.374	9810.757	35.709
568.098	108.100	6566.474	9818.565	36.366
568.751	108.100	6493.913	9766.256	35.179
569.402	108.000	6457.976	9737.383	35.662
570.056	108.000	6558.623	9758.767	35.830
570.706	108.000	6514.257	9767.746	35.528
571.359	107.900	6476.650	9776.229	35.508
572.012	107.900	6536.729	9783.654	33.796
572.664	107.800	6606.921	9825.481	35.273
573.318	107.800	10439.807	10285.343	35.509
573.970	107.800	10439.807	10036.320	34.121
574.622	107.800	8800.552	9864.060	34.610
575.276	107.700	7557.239	9827.379	35.976
575.929	107.700	7479.674	9857.322	35.458
576.581	107.600	7539.360	9839.656	35.671
577.233	107.600	7657.645	9952.463	35.463
577.887	107.600	7460.614	9957.672	35.323
578.540	107.600	7608.546	9969.759	34.914
579.193	107.500	7614.504	10002.556	34.638
579.846	107.500	7500.392	10007.574	36.141
580.499	107.500	7591.490	9974.548	33.908
581.153	107.400	7520.142	9939.650	35.992
581.807	107.400	7396.517	9898.563	36.376
582.461	107.400	9325.709	10015.152	35.057
583.116	107.300	10439.807	10100.410	35.634
583.770	107.300	10439.807	10075.446	35.934
584.422	107.300	10439.807	10093.532	35.061
585.077	107.300	10439.807	10049.273	35.834
585.729	107.200	10439.807	10140.555	35.037
586.379	107.200	10439.807	10099.047	34.592
587.029	107.200	10439.807	10059.067	34.984
587.678	107.200	10439.807	10148.261	36.175
588.328	107.100	10439.807	10043.873	35.356
588.983	107.100	10439.807	10112.968	35.154
589.637	107.100	10439.807	10120.648	36.404
590.291	107.100	10439.807	10148.847	34.800
590.945	107.100	10439.807	10028.882	34.558
591.598	107.000	10439.807	10056.749	34.859
592.249	107.000	10439.807	10036.600	35.948
592.902	107.000	10439.807	10061.156	35.869
593.556	107.000	10431.487	10003.549	35.754
594.211	107.000	10390.106	10021.253	35.605
594.865	107.000	10202.555	9955.711	35.700
595.517	106.900	10017.775	9969.798	34.672
596.171	106.900	9802.632	9978.127	35.542
596.823	106.900	9291.956	9910.076	35.028
597.476	106.900	9335.308	9979.108	35.179
598.128	106.800	9852.344	10000.047	35.415
598.782	106.800	10201.897	10000.187	34.653
599.435	106.800	10355.200	10008.313	35.313
600.086	106.800	10388.860	9975.733	36.341
600.738	106.800	10379.471	9873.574	36.848
601.389	106.700	10396.246	9952.718	35.559
602.041	106.700	10410.238	9945.254	35.048
602.693	106.700	10410.293	10062.608	36.436
603.346	106.700	10410.871	10034.524	35.263
604.001	106.700	10416.905	10057.233	34.839
604.652	106.700	10425.146	10041.491	36.324
605.303	106.600	10416.600	10027.532	35.751
605.957	106.600	12443.980	10014.006	36.166
606.613	106.600	12347.132	9965.556	34.409
607.265	106.600	12352.354	10012.439	35.389
607.918	106.500	12233.294	9985.603	35.947
608.571	106.500	12300.287	10033.989	35.100
609.223	106.500	12183.418	9957.316	35.582
609.927	106.500	12134.790	10022.297	34.935
610.568	106.500	12296.046	10094.984	36.040
611.213	106.500	12201.567	10089.851	37.027
611.858	106.500	12095.383	10090.004	35.310
612.508	106.400	12062.893	10057.552	34.558
613.164	106.400	12103.471	10096.716	35.862
613.839	106.400	11902.133	10070.963	35.862
614.484	106.400	11837.483	10021.546	36.234
615.136	106.400	11834.808	10044.242	36.151
615.787	106.400	11834.758	10078.592	35.146
616.440	106.400	11803.872	10079.255	34.637
617.093	106.400	11696.911	10071.052	35.829
617.748	106.300	11723.263	10039.568	36.635
618.403	106.300	11676.494	9995.449	34.951
619.058	106.300	11683.563	10050.139	36.094
619.713	106.300	11557.256	10030.283	35.627
620.368	106.300	12279.858	10027.048	34.964
621.022	106.300	13847.435	10035.263	35.006
621.676	106.200	16117.376	10030.436	37.363
622.330	106.200	20023.963	10128.455	35.630
622.984	106.200	21734.914	10167.047	35.503
623.640	106.200	21934.074	10220.604	36.123
624.295	106.200	21553.649	10235.875	36.527
624.948	106.200	21399.831	10221.190	35.535
625.602	106.200	21283.687	10237.734	36.920
626.257	106.100	21343.548	10294.870	35.222
626.906	106.100	20839.452	10217.381	35.732
627.557	106.100	20874.860	10253.617	35.513
628.211	106.100	20700.765	10250.318	35.731
628.865	106.100	20550.361	10241.084	34.718
629.519	106.100	20247.539	10224.628	34.955
630.166	106.000	20142.323	10236.308	36.193
630.813	106.000	20085.799	10253.948	36.304
631.461	106.000	19837.565	10237.823	35.788
632.109	106.000	19780.735	10212.898	35.145
632.752	106.000	19427.986	10191.272	36.125
633.403	106.000	19141.888	10173.861	36.021
634.058	106.000	19647.028	10122.355	35.726
634.712	105.900	20726.124	10126.418	36.026
635.365	105.900	19844.940	10176.714	35.175
636.017	105.900	18010.190	10149.483	34.923
636.670	105.900	16500.959	10074.415	35.052
637.324	105.900	15422.997	10055.514	35.416
637.976	105.900	14566.229	10029.633	35.368
638.626	105.900	13972.163	9992.940	34.959
639.274	105.900	13405.289	9993.334	35.577
639.928	105.900	12983.636	9931.919	35.458
640.579	105.900	12877.032	9943.841	36.096
641.233	105.900	13001.327	9966.129	34.998
641.882	105.900	12864.207	9983.578	34.933
642.528	105.900	12972.874	9993.029	35.526
643.181	105.900	12993.991	9971.211	35.771
643.835	105.900	12941.198	9993.131	35.593
644.488	105.900	13112.402	9983.005	36.239
645.138	105.900	13228.736	9992.239	35.836
645.792	105.900	13193.507	9946.057	35.533
646.434	105.900	13288.190	9998.989	36.304
647.081	105.800	13539.480	10015.254	35.298
647.727	105.800	13571.411	9994.213	36.170
648.379	105.800	13881.441	10073.638	34.272
649.033	105.800	13874.474	10040.154	35.270
649.683	105.800	14007.774	10087.228	36.241
650.335	105.800	14112.086	10101.174	36.238
653.491	105.700	14650.111	10024.093	34.773
654.145	105.700	14808.056	10083.942	35.738
654.800	105.700	14952.271	10054.597	35.881
655.950	105.700	15152.220	10072.237	34.845
656.603	105.700	15282.680	10060.417	35.684
658.387	105.700	15508.408	9988.711	34.828
659.040	105.700	15601.932	9992.889	35.536
659.693	105.700	15835.021	10025.048	36.176
660.939	105.700	16014.618	10042.625	35.550
661.593	105.700	16106.180	9998.123	37.549
662.246	105.600	16290.362	10075.357	35.556
662.898	105.600	16624.567	10055.272	34.391
664.095	105.600	16693.089	10038.829	35.699
664.746	105.600	16994.713	10070.173	36.173
665.400	105.600	17266.165	10123.208	35.043
666.053	105.600	17330.433	10088.234	36.984
666.704	105.600	17494.275	10063.933	35.765
667.351	105.600	17764.339	10052.686	35.242
668.001	105.600	18110.579	10082.324	35.607
668.645	105.600	18540.867	10098.512	35.992
669.296	105.600	18594.501	10114.114	35.284
669.948	105.600	18706.250	10108.587	36.259
670.603	105.600	18667.799	10093.609	34.770
671.249	105.600	18893.272	10139.422	36.394
671.891	105.600	19002.640	10142.262	36.343
672.543	105.600	19174.850	10195.309	36.649
673.196	105.600	19247.231	10162.462	35.099
673.846	105.600	19414.651	10214.083	36.660
674.494	105.600	19462.146	10182.114	36.975
675.141	105.600	19706.826	10229.901	35.690
675.858	105.500	19622.141	10206.441	36.030
676.513	105.500	19522.096	10182.547	36.097
677.165	105.500	19676.131	10184.509	35.845
677.817	105.500	19632.750	10206.224	37.175
678.470	105.500	19828.191	10205.524	35.491
679.124	105.500	19837.603	10184.368	37.390
679.779	105.500	19904.814	10234.053	35.082
680.448	105.500	19819.645	10199.869	35.982
681.162	105.500	19850.098	10193.411	35.621
681.813	105.500	19821.466	10142.516	35.219
682.463	105.500	9446.138	10128.137	35.598
683.109	105.500	5774.106	10233.200	36.688
683.761	105.500	5374.308	10215.318	34.342
684.413	105.500	5270.392	10188.177	36.011
685.060	105.500	5329.718	10272.670	36.127
685.707	105.500	5315.708	10287.139	35.825
686.358	105.500	5300.985	10257.399	35.726
687.009	105.500	5268.048	10244.268	36.026
687.662	105.500	5287.522	10252.967	35.141
688.316	105.400	5272.430	10261.016	36.827
688.972	105.400	5239.722	10200.964	35.796
689.626	105.400	5261.769	10178.522	35.906
690.274	105.400	5257.630	10208.568	36.716
690.918	105.400	5270.010	10185.018	36.238
692.456	105.400	5239.404	10078.847	35.272
693.107	105.400	5238.767	10108.676	35.912
