Wed, Oct 25, 2017	11:04 AM
 Notes: GUA top chamber_1E-09 above base_ 5 sec_102517
 waiting time: 50.000
 time(s)	 temp (K)	 MS1=1.971	 MS2=27.883	 MS3=125.586	 MS4=29.015	 MS5=111.548	 MS6=84.866	 MS7=56.522	 MS8=125.586
0.000	100.600	4185.601	10098.028	0.270
0.728	100.600	4278.235	10135.601	2.946
1.373	100.500	4303.026	10113.923	4.203
2.065	100.500	4356.208	10280.834	4.621
2.744	100.500	4292.797	10253.693	4.962
3.404	100.500	4365.306	10275.969	5.308
4.089	100.500	4307.779	10288.234	5.335
4.776	100.500	4313.848	10312.344	5.271
5.456	100.500	4372.607	10306.307	5.754
6.140	100.500	4285.311	10254.750	5.614
6.806	100.500	4280.598	10173.670	6.494
7.455	100.400	4340.982	10266.111	6.439
8.105	100.400	4294.751	10292.437	6.261
8.757	100.400	4315.781	10405.168	6.661
9.437	100.500	4360.741	10749.854	6.759
10.158	100.500	4365.623	12513.980	6.657
10.847	100.700	4486.773	17956.328	6.986
11.499	101.000	4644.703	24047.102	7.156
12.151	101.500	4637.824	21261.933	7.186
12.838	102.300	4627.541	19045.180	6.852
13.489	103.500	4631.780	20065.841	7.053
14.140	105.100	4650.389	21401.856	7.311
14.825	107.100	4699.436	21154.667	7.588
15.481	109.500	4700.636	19780.531	7.620
16.134	112.200	4634.777	18296.480	7.626
16.818	115.100	4617.861	17038.412	7.779
17.487	118.200	4647.464	16393.489	8.040
18.157	121.300	4588.708	15753.101	7.660
18.810	124.300	4610.226	15419.431	7.339
19.475	127.200	4649.509	15217.062	7.998
20.124	130.000	4604.314	14885.621	7.825
20.773	132.700	4579.601	14590.008	7.983
21.494	135.600	4650.889	14632.051	7.902
22.184	138.100	4558.805	14439.616	8.238
22.884	140.500	4629.207	14359.262	8.072
23.589	143.300	4576.847	14296.216	8.554
24.268	145.600	4487.908	13977.130	8.146
24.925	148.000	4591.643	14076.755	8.170
25.610	150.300	4554.890	13984.989	8.008
26.273	152.700	4561.571	13798.985	8.021
26.934	155.000	4580.950	13596.425	7.980
27.582	157.300	4544.136	13403.519	8.487
28.277	159.600	4534.895	13244.122	8.159
28.991	162.200	4581.867	13231.475	8.627
29.675	164.500	4505.643	12995.277	8.816
30.347	166.700	4542.316	12949.757	8.517
31.001	168.800	4537.310	12921.966	8.783
31.654	171.000	4490.243	12850.922	8.673
32.303	173.100	4474.061	12808.586	8.901
32.983	175.200	4530.936	12740.714	8.464
33.634	177.200	4397.431	12533.925	8.705
34.287	179.300	4429.544	12544.725	8.830
34.980	181.400	4508.744	12619.488	8.627
35.631	183.400	4420.314	12523.137	9.618
36.284	185.500	4427.851	12446.362	8.762
36.936	187.500	4441.482	12427.143	9.241
37.630	189.900	4428.970	12389.379	8.787
38.279	191.600	4413.341	12249.163	8.757
38.931	193.600	4470.571	12412.152	9.097
39.623	196.000	4383.603	12395.416	9.542
40.273	198.000	4448.275	12455.290	8.982
40.925	199.700	4476.292	12358.226	9.513
41.614	202.000	4400.370	12244.897	9.207
42.300	204.000	4385.805	12181.125	9.194
42.951	206.000	4447.667	12265.173	8.931
43.635	208.000	4363.326	12132.841	9.532
44.306	210.000	4393.749	12162.059	9.253
44.970	212.000	4470.760	12256.551	9.455
45.662	214.400	4400.680	12188.270	9.556
46.335	216.300	4431.340	12192.945	9.244
47.005	218.300	4470.706	12258.830	9.304
47.657	220.300	4408.343	12196.664	9.483
48.308	222.300	4431.908	12370.312	10.050
49.004	224.300	4470.924	12285.602	9.815
49.655	226.300	4420.093	12226.582	9.859
50.307	228.300	4413.833	12284.316	10.123
50.959	230.300	4470.598	12292.225	9.947
51.607	232.200	4422.194	12251.061	9.868
52.259	234.200	4415.579	12245.814	10.344
52.909	235.900	4491.376	12231.472	10.147
53.560	237.800	4476.012	12254.041	10.678
54.211	239.800	4454.887	12232.415	10.134
54.864	241.800	4538.014	12322.080	10.716
55.518	243.800	4542.676	12290.149	10.658
56.169	245.800	4488.765	12181.418	10.846
56.858	247.800	4544.835	12240.146	10.851
57.509	249.700	4582.620	12321.430	10.020
58.159	251.700	4534.571	12237.229	10.548
58.874	254.000	4625.031	12314.565	10.724
59.524	256.000	4651.062	12313.037	10.858
60.176	257.700	4594.873	12294.658	10.456
60.827	259.700	4691.342	12395.250	11.195
61.507	262.000	4777.346	12555.933	10.681
62.160	263.900	4669.528	12456.487	11.241
62.811	265.600	4742.043	12467.122	10.994
63.457	267.600	4741.865	12525.022	11.366
64.141	269.900	4733.746	12530.957	10.743
64.792	271.500	4691.322	12427.970	11.147
65.447	273.500	4800.873	12572.491	11.436
66.099	275.500	4765.244	12612.687	10.942
66.796	277.800	4776.949	12599.951	11.339
67.448	279.800	4801.673	12650.247	11.808
68.100	281.700	4752.333	12658.551	11.776
68.752	283.400	4757.872	12625.424	11.238
69.403	285.400	4825.615	12745.082	11.489
70.056	287.400	4786.717	12746.917	11.576
70.754	289.700	4711.075	12643.267	11.936
71.415	291.700	4744.176	12643.981	11.618
72.066	293.700	4714.594	12643.458	11.810
72.746	295.600	4677.032	12642.045	12.369
73.404	297.600	4702.173	12657.965	12.350
74.090	299.600	4651.765	12705.561	12.101
74.770	301.600	4660.596	12772.300	12.566
75.442	303.500	4733.713	12844.631	12.693
76.106	305.500	4659.785	12863.939	12.698
76.762	307.500	4683.079	12831.054	13.181
77.449	309.800	4713.258	12873.173	12.937
78.139	311.800	4659.604	12836.925	12.981
78.793	313.700	4650.808	12957.845	13.708
79.484	315.700	4732.610	13013.465	12.591
80.137	317.700	4648.045	12967.792	13.444
80.787	319.700	4654.396	12959.310	12.899
81.464	321.600	4717.653	12977.446	13.238
82.115	323.600	4643.523	12959.106	12.902
82.802	325.600	4655.620	13014.051	13.607
83.452	327.600	4737.935	13081.427	12.698
84.106	329.600	4689.681	13052.833	12.566
84.794	331.500	4680.461	12984.923	13.624
85.460	333.500	4729.711	13051.254	14.749
86.113	335.500	4682.529	13083.847	14.302
86.765	337.500	4691.776	13087.464	13.401
87.453	339.500	4731.063	13147.414	14.051
88.107	341.400	4649.112	13094.749	13.983
88.789	343.700	4658.194	13010.459	14.328
89.440	345.700	4712.190	13097.576	14.904
90.093	347.400	4663.875	13126.412	14.496
90.778	349.700	4638.750	13017.464	15.296
91.452	351.700	4731.631	13157.247	15.030
92.128	353.600	4617.082	13121.903	15.216
92.778	355.600	4582.381	13038.097	15.270
93.429	357.600	4642.928	13153.044	15.518
94.080	359.600	4565.250	13136.970	14.942
94.731	361.600	4576.128	13148.662	15.118
95.385	363.500	4613.115	13226.520	15.696
96.038	365.500	4587.755	13209.606	15.228
96.691	367.200	4532.679	13238.442	15.616
97.345	369.200	4586.349	13361.450	16.074
97.996	371.100	4589.764	13408.448	15.035
98.649	373.100	4486.110	13309.919	15.301
99.301	375.100	4510.944	13411.797	15.701
99.983	377.100	4554.101	13459.597	16.229
100.634	379.000	4463.031	13387.063	17.248
101.287	381.000	4447.500	13394.578	16.979
101.965	383.000	4484.135	13442.543	16.190
102.615	385.000	4415.169	13399.558	17.191
103.267	387.000	4409.258	13471.442	16.756
103.917	388.900	4473.669	13572.595	16.627
104.571	390.900	4463.237	13565.947	16.854
105.224	392.900	4401.562	13617.567	16.793
105.877	394.900	4518.973	13829.808	17.881
106.529	396.800	4485.386	13809.760	17.458
107.182	398.800	4428.971	13719.854	17.911
107.874	400.800	4482.695	13919.982	17.329
108.525	402.800	4505.092	13879.098	17.311
109.176	404.700	4410.971	13754.191	18.012
109.828	406.700	4416.649	13791.280	18.459
110.479	408.700	4477.965	13845.015	18.855
111.132	410.700	4383.631	13834.138	17.838
111.780	412.700	4444.209	13917.842	17.951
112.465	414.600	4481.814	13977.181	18.418
113.118	416.600	4435.697	13967.820	18.469
113.767	418.600	4427.589	13971.373	18.848
114.418	420.500	4510.747	14063.139	18.677
115.071	422.500	4468.028	13967.387	18.177
115.772	424.500	4434.820	13920.644	19.633
116.447	426.500	4488.560	14011.939	19.592
117.117	428.500	4404.989	13929.445	19.185
117.769	430.500	4377.046	13940.449	19.662
118.422	432.500	4462.147	14010.232	19.581
119.075	434.400	4459.159	14021.975	19.657
119.766	436.400	4385.093	13986.441	19.656
120.420	438.400	4447.471	14014.168	20.163
121.071	440.400	4439.541	14034.724	20.388
121.751	442.300	4365.042	13903.603	20.118
122.404	444.300	4397.854	13886.892	19.921
123.055	446.300	4413.778	13990.147	20.429
123.706	448.300	4333.159	13983.460	20.239
124.354	450.300	4456.744	14082.983	21.110
125.005	452.300	4466.052	14154.664	21.174
125.657	454.200	4384.461	14126.771	21.289
126.309	456.200	4386.940	14036.227	21.094
126.959	458.200	4441.426	14142.984	21.066
127.612	460.200	4392.320	14179.258	20.192
128.263	461.800	4400.244	14088.230	21.341
128.913	463.800	4445.962	14085.836	20.824
129.605	466.100	4385.781	14036.062	21.354
130.290	468.100	4350.996	13858.439	20.314
130.941	470.100	4404.240	13936.781	21.107
131.630	472.000	4381.993	13929.241	21.608
132.280	474.000	4402.760	13943.188	22.136
132.933	476.000	4426.544	13799.011	21.895
133.584	478.000	4370.980	13748.294	22.192
134.237	480.000	4361.024	13571.831	22.207
134.887	481.900	4418.530	13617.466	22.368
135.568	483.900	4420.379	13619.516	22.210
136.222	485.900	4371.339	13550.956	23.078
136.875	487.800	4453.353	13600.297	22.315
137.530	489.800	4407.769	13509.015	21.662
138.216	491.800	4378.046	13433.806	22.570
138.867	493.800	4420.579	13418.981	23.476
139.518	495.800	4433.257	13398.475	23.394
140.170	497.800	4351.287	13355.668	23.583
140.857	499.700	4447.095	13391.279	23.706
141.511	501.700	4439.795	13415.771	22.913
142.163	503.700	4344.341	13296.634	23.083
142.848	505.700	4420.035	13227.463	23.900
143.499	507.600	4404.209	13211.771	23.966
144.151	509.600	4322.656	13098.608	23.725
144.802	511.600	4336.050	13118.273	22.862
145.455	513.500	4424.463	13211.453	23.150
146.109	515.500	4340.884	13090.393	24.893
146.804	517.500	4340.063	13113.102	23.929
147.457	519.500	4412.150	13218.585	25.200
148.109	521.500	4343.967	13135.098	24.598
148.760	523.500	4317.375	13028.634	24.568
149.411	525.500	4396.844	13056.705	24.091
150.065	527.500	4348.514	12976.045	23.775
150.718	529.400	4320.624	12934.805	25.246
151.369	531.400	4413.680	13019.196	24.742
152.021	533.000	4390.742	13057.635	24.663
152.671	535.000	4360.471	12942.001	24.269
153.325	537.000	4311.185	12884.101	24.219
153.978	539.000	4356.409	12888.559	24.711
154.629	540.900	4290.669	12982.961	26.203
155.324	542.900	4347.582	13030.837	24.051
156.007	545.200	4398.126	13108.135	24.512
156.659	547.200	4324.415	12937.887	27.006
157.312	549.200	4329.070	12935.556	26.037
157.963	550.800	4408.569	13053.750	26.261
158.617	552.800	4324.912	13046.070	25.943
159.272	554.800	4311.383	12989.597	25.501
159.923	556.800	4409.986	13049.700	25.233
160.576	558.700	4371.093	13037.613	27.070
161.230	560.700	4353.516	13033.703	26.194
161.877	562.700	4404.431	13013.159	26.038
162.529	564.700	4414.543	13025.628	25.471
163.182	566.600	4335.674	12963.271	26.274
163.832	568.600	4359.121	12899.168	26.348
164.519	570.600	4345.685	12950.776	26.701
165.185	572.600	4332.252	12969.664	26.591
165.836	574.600	4360.471	12921.100	26.126
166.487	576.600	4366.446	12892.087	26.530
167.138	578.500	4334.518	12862.729	26.461
167.783	580.500	4312.312	12919.202	25.811
168.436	582.500	4402.021	13052.744	26.709
169.090	584.400	4361.058	13022.546	27.155
169.741	586.400	4312.995	12845.395	26.973
170.392	588.100	4357.320	12860.156	27.839
171.044	590.100	4390.586	12944.000	26.600
171.696	592.100	4317.759	12820.915	26.129
172.346	594.100	4353.577	12855.864	27.689
172.998	596.000	4365.997	12909.090	26.498
173.686	598.000	4318.944	12840.351	28.057
174.346	600.000	4367.397	12809.134	28.132
174.999	601.900	4376.118	12845.433	28.899
175.652	603.900	4336.642	12898.022	27.247
176.303	605.900	4299.246	12757.144	28.210
176.956	607.900	4378.395	12817.680	28.382
177.608	609.800	4296.926	12802.868	27.759
178.293	611.800	4328.762	12832.327	27.570
178.947	613.800	4392.703	12924.565	28.342
179.598	615.800	4363.626	12886.648	28.578
180.249	617.700	4303.613	12802.651	27.649
180.901	619.700	4372.107	12825.857	26.495
181.587	621.700	4358.652	12885.324	29.128
182.239	623.700	4310.873	12777.841	26.931
182.892	625.700	4373.421	12782.184	29.011
183.544	627.600	4367.852	12768.339	28.188
184.191	629.600	4287.402	12881.464	28.080
184.838	631.600	4328.713	12658.615	30.407
185.512	633.600	4376.305	12795.863	28.141
186.209	635.500	4296.535	12692.647	29.296
186.863	637.500	4363.451	12673.262	29.848
187.514	639.500	4318.069	12644.834	30.234
188.165	641.500	4288.541	12690.685	29.266
188.819	643.400	4292.121	12694.417	29.063
189.469	645.400	4372.895	12765.958	29.356
190.119	647.400	4279.824	12739.873	29.455
190.765	649.400	4298.210	12648.986	29.508
191.416	651.400	4333.476	12665.123	28.715
192.065	653.000	4304.652	12557.118	30.630
192.719	655.000	4274.911	12624.443	29.957
193.371	657.000	4347.757	12633.244	29.598
194.022	658.900	4330.376	12625.283	28.802
194.673	660.900	4244.721	12528.894	30.884
195.323	662.900	4293.942	12556.978	31.064
195.975	664.900	4283.688	12515.979	31.123
196.655	666.900	4249.609	12406.764	30.514
197.306	668.900	4250.225	12382.501	29.593
197.958	670.900	4318.019	12553.131	30.122
198.611	672.800	4259.554	12515.584	30.470
199.298	674.800	4263.624	12492.557	29.855
199.954	676.800	4312.942	12528.104	30.206
200.607	678.700	4273.887	12511.713	31.086
201.259	680.700	4264.914	12535.008	31.251
201.911	682.700	4316.565	12592.678	30.060
202.563	684.700	4344.530	12596.970	30.302
203.214	686.700	4249.245	12509.012	30.497
203.869	688.700	4341.664	12492.175	31.246
204.521	690.600	4305.456	12408.764	29.858
205.217	692.600	4219.602	12330.549	30.255
205.872	694.600	4256.213	12261.416	30.293
206.526	696.500	4303.493	12459.136	30.933
207.207	698.500	4236.406	12431.053	31.156
207.860	700.400	4304.005	12427.270	30.255
208.514	702.400	4305.554	12448.973	30.882
209.168	704.400	4238.015	12391.888	31.128
209.849	706.400	4287.292	12461.964	30.265
210.501	708.400	4282.945	12495.550	31.612
211.155	710.300	4239.827	12438.542	31.874
211.848	712.300	4260.724	12418.329	31.254
212.500	714.300	4324.515	12528.677	30.692
213.151	716.200	4231.470	12479.324	32.273
213.802	718.200	4259.642	12447.623	31.670
214.455	720.200	4328.790	12570.721	31.520
215.109	722.200	4270.867	12846.503	31.582
215.764	724.200	4236.702	12467.453	32.447
216.415	725.800	4306.259	12453.278	31.779
217.068	726.200	4360.829	12461.735	33.252
