Thu, Oct 12, 2017	3:53 PM
 Notes: GUA_1.38E-9_30sec_0.025 L_more masses and mass 12_101217
 waiting time: 50.000
 time(s)	 temp (K)	 MS1=28.936	 MS2=30.937	 MS3=11.679	 MS4=95.042	 MS5=109.505	 MS6=125.586	 MS7=109.505	 MS8=125.586
0.000	99.200	287.439	34.670	380.549	1.248	1.260	14.361
1.439	99.200	287.223	35.766	365.947	1.537	1.513	14.932
2.750	99.200	289.046	34.386	379.430	1.440	1.524	16.827
4.071	99.200	288.403	35.855	378.886	1.611	1.451	15.113
5.366	99.200	290.499	34.816	375.153	1.646	1.256	16.893
6.679	99.200	281.790	35.430	378.233	1.668	1.341	17.404
7.992	99.200	282.697	35.731	374.910	1.755	0.893	16.193
9.285	99.200	284.088	34.377	381.999	1.373	1.115	16.073
10.609	99.200	288.806	36.792	374.799	1.515	1.295	15.984
11.911	99.200	283.840	35.423	371.845	1.816	1.338	16.455
13.221	99.200	284.837	35.216	374.588	1.847	1.175	16.494
14.544	99.200	286.056	35.458	374.155	1.654	1.252	15.435
15.834	99.200	287.997	34.820	375.242	1.365	1.071	16.576
17.124	99.200	291.047	34.123	380.110	1.970	1.269	16.602
18.414	99.200	286.442	35.368	378.465	1.861	1.255	16.963
19.716	99.300	287.899	35.600	380.957	1.729	1.298	17.070
21.007	99.200	285.986	34.160	384.501	1.707	1.167	17.123
22.301	99.400	304.537	35.047	384.210	1.675	0.885	17.887
23.588	100.200	322.509	33.452	472.294	1.855	1.303	18.111
24.879	103.000	365.125	37.451	527.386	1.654	1.324	18.848
26.198	108.900	376.518	37.963	535.527	2.046	1.378	17.367
27.510	117.100	360.098	35.939	527.351	1.927	1.213	19.065
28.825	125.800	335.032	37.535	508.656	1.654	1.108	17.719
30.146	133.500	328.273	37.556	485.898	2.052	1.446	18.056
31.469	140.300	323.592	39.974	481.141	1.629	1.132	18.507
32.782	146.700	325.333	47.280	486.281	1.925	1.608	19.004
34.074	153.100	326.601	43.202	481.041	1.885	1.160	19.699
35.364	158.900	314.891	39.076	468.452	1.811	2.050	20.225
36.670	164.900	331.007	43.147	461.344	1.881	4.222	22.154
37.962	170.500	327.196	45.080	459.175	1.992	5.473	31.683
39.293	175.800	328.454	44.252	455.758	2.423	3.580	61.894
40.585	180.900	344.435	48.856	462.803	3.352	3.762	145.858
41.914	185.700	404.604	64.413	484.559	5.107	7.667	367.660
43.202	190.400	538.735	97.571	536.412	9.595	14.754	759.408
44.524	195.000	763.043	152.307	604.983	14.474	23.021	1111.405
45.813	199.100	916.022	180.598	650.865	12.272	14.938	555.807
47.125	203.500	616.355	99.111	600.268	6.560	7.501	358.586
48.412	207.800	551.496	95.322	565.677	6.249	7.887	381.621
49.717	212.000	574.563	98.302	556.633	6.539	8.149	423.596
51.006	216.200	596.476	106.272	561.254	7.417	9.567	479.481
52.354	220.400	629.606	112.324	568.151	8.416	11.356	526.879
53.641	224.500	653.275	117.039	588.176	7.646	10.825	513.545
54.929	228.200	640.281	115.350	586.429	7.712	9.358	436.302
56.219	232.300	602.989	102.893	565.970	6.662	7.505	326.120
57.512	236.300	538.081	87.926	547.291	5.069	6.357	235.848
58.815	240.300	490.633	80.111	528.335	5.244	4.768	185.602
60.138	244.300	467.562	74.760	515.599	4.552	3.911	154.026
61.463	248.300	456.629	67.872	498.049	4.064	4.275	131.069
62.761	252.300	428.583	67.206	489.667	4.086	3.523	117.308
64.046	256.000	424.180	63.861	487.849	4.230	3.168	106.930
65.361	260.000	416.579	64.488	476.897	3.995	3.057	98.251
66.652	263.900	415.029	64.318	483.162	3.446	2.417	94.225
67.942	267.900	412.471	60.646	485.491	3.464	3.212	93.395
69.292	271.800	410.484	59.065	487.402	3.807	3.219	91.612
70.585	275.800	403.438	61.323	485.563	4.415	2.854	92.570
71.885	279.500	400.356	62.870	489.701	3.344	2.448	88.960
73.206	283.500	401.142	61.171	481.598	3.684	2.488	90.873
74.499	287.400	402.770	62.689	495.149	3.997	2.820	89.806
75.792	291.400	400.193	59.327	487.480	4.100	2.916	89.319
77.077	295.400	407.618	61.088	491.583	3.818	2.769	90.864
78.363	299.000	401.705	60.969	497.521	3.966	3.244	90.146
79.687	302.900	406.670	62.385	486.135	3.718	2.658	92.787
80.974	306.900	405.427	64.491	496.495	3.981	3.272	91.314
82.267	310.800	401.780	64.294	497.218	3.737	2.540	93.098
83.549	314.800	409.254	65.288	494.402	3.830	3.137	95.346
84.842	318.400	407.506	67.951	497.085	3.846	2.865	94.421
86.136	322.400	420.061	66.702	503.795	3.884	2.708	90.830
87.425	326.300	412.915	66.382	498.649	3.971	2.937	87.597
88.716	330.300	408.276	68.137	504.511	4.119	2.946	82.991
90.032	333.900	409.496	69.802	501.890	4.195	3.431	75.472
91.326	337.900	405.051	69.634	504.458	3.936	3.240	69.380
92.620	341.800	406.374	64.346	497.376	4.927	2.873	64.530
93.925	345.800	398.175	67.485	494.938	4.839	2.767	58.596
95.217	349.700	393.993	65.418	493.614	4.993	2.639	59.074
96.503	353.400	401.693	68.170	493.047	6.149	2.517	57.358
97.788	357.400	392.539	66.209	484.964	6.914	2.062	55.749
99.126	361.300	387.541	65.945	485.334	6.258	2.132	55.498
100.417	365.300	392.432	65.835	477.496	6.500	2.630	55.245
101.713	369.200	393.076	66.350	478.906	7.391	2.236	53.921
103.023	373.200	394.531	65.643	479.833	6.593	2.137	52.646
104.336	377.100	390.206	66.872	480.877	6.324	2.389	53.797
105.656	381.100	392.167	63.904	473.084	6.420	2.201	53.239
106.961	385.100	392.375	64.783	480.594	5.847	1.713	51.706
108.325	389.000	389.210	64.402	491.633	6.284	2.261	51.738
109.640	393.000	391.781	62.435	500.913	6.078	2.522	50.501
110.932	396.900	398.758	63.473	516.776	6.411	2.432	50.816
112.224	400.500	397.092	62.534	541.628	5.692	2.367	50.258
113.516	404.500	407.302	63.222	562.875	6.083	2.443	50.790
114.836	408.400	409.361	59.742	586.486	5.584	2.244	49.085
116.127	412.400	426.539	59.553	615.000	6.152	1.681	47.470
117.418	416.000	430.459	57.842	623.706	5.124	2.103	47.637
118.737	420.000	430.337	57.166	643.312	4.528	1.843	48.495
120.033	423.900	434.521	57.385	660.115	4.756	2.307	46.467
121.325	427.900	433.172	56.783	662.324	4.888	1.946	47.830
122.657	431.800	441.428	56.920	670.809	4.218	2.202	47.917
123.949	435.800	443.450	54.864	679.481	4.204	1.658	48.181
125.243	439.800	438.276	54.076	684.648	4.412	2.037	47.558
126.556	443.700	447.245	54.433	699.133	3.764	1.711	46.382
127.849	447.300	440.113	53.666	694.781	3.960	1.959	48.058
129.138	451.300	438.460	55.034	706.387	3.903	2.108	46.474
130.482	455.300	446.857	54.061	708.825	4.404	2.118	45.055
131.805	459.200	445.347	56.659	716.058	3.833	1.875	44.896
133.096	463.200	443.550	55.169	717.045	4.114	2.202	46.031
134.386	467.200	440.432	52.065	712.350	4.455	1.792	45.447
135.715	471.200	447.020	53.700	711.029	4.166	1.903	45.697
137.012	475.100	449.003	51.855	719.117	4.562	1.949	46.297
138.335	479.100	440.301	53.474	708.198	4.243	1.618	45.552
139.628	482.700	450.483	55.889	698.500	3.810	1.943	44.116
140.919	486.600	442.619	54.528	680.838	3.871	1.966	45.052
142.210	490.600	437.254	52.741	671.696	3.950	2.060	45.046
143.500	494.500	433.124	54.062	647.377	4.277	1.846	44.926
144.790	498.200	419.359	54.447	618.080	4.668	2.238	44.307
146.110	502.100	413.967	52.125	594.476	3.777	1.975	45.466
147.400	506.100	401.869	54.820	571.983	3.967	2.226	45.182
148.724	510.000	393.855	54.514	543.537	4.158	2.264	44.384
150.017	514.000	390.249	53.929	526.280	4.048	1.889	44.030
151.311	517.900	375.940	55.363	507.558	3.947	1.949	42.312
152.606	521.600	380.710	54.653	507.041	3.706	1.794	44.546
153.897	525.500	373.045	54.432	489.343	3.893	1.648	43.767
155.191	529.500	374.956	55.297	482.929	3.739	2.198	44.802
156.484	533.400	377.914	56.347	481.327	3.894	1.882	45.615
157.807	537.400	367.561	54.101	475.399	4.004	2.160	44.804
159.097	541.000	375.622	55.348	471.267	3.421	2.061	43.431
160.386	545.000	372.460	57.104	477.282	4.071	1.871	43.662
161.679	548.900	377.806	53.590	467.384	4.551	1.915	44.304
162.971	552.900	375.567	54.840	468.580	3.873	2.094	43.938
164.260	556.500	373.290	57.910	472.333	3.813	2.074	46.056
165.550	560.500	373.654	55.649	474.727	3.834	1.942	44.093
166.854	564.500	368.840	58.738	470.739	3.719	2.037	43.639
168.143	568.400	367.464	57.952	470.473	4.426	1.568	44.940
169.432	572.000	374.817	57.005	467.240	4.448	1.799	44.153
170.726	576.000	371.951	57.411	468.292	4.769	2.094	45.763
172.024	579.900	376.135	57.786	478.570	3.843	1.972	45.679
173.312	583.900	371.214	56.336	469.738	4.055	1.836	43.783
174.603	587.500	381.866	58.315	473.606	3.992	1.743	46.158
175.892	591.500	373.620	61.279	463.543	4.105	2.027	44.232
177.183	595.400	373.905	58.958	471.156	4.055	2.053	46.065
178.475	599.400	377.824	60.515	465.676	3.922	1.505	47.409
179.767	603.000	383.446	62.506	470.155	4.626	1.967	45.519
181.132	607.300	387.914	61.739	464.980	3.879	2.019	47.983
182.470	611.300	379.170	59.901	469.687	5.077	1.921	47.564
183.806	615.200	379.801	61.788	468.509	4.655	1.942	45.480
185.120	619.200	382.483	59.126	470.111	3.968	2.227	46.616
186.444	623.100	379.720	60.574	468.541	4.402	1.892	48.070
187.736	627.100	379.467	62.981	476.756	4.619	1.875	48.671
189.028	631.000	385.708	62.834	478.426	4.147	1.496	48.396
190.320	634.700	382.426	64.160	477.870	3.959	2.077	49.285
191.611	638.600	386.167	63.447	485.277	4.080	1.935	48.840
192.905	642.600	386.805	64.953	481.482	4.652	2.414	48.904
194.211	646.500	381.646	63.740	481.705	4.741	2.127	50.558
195.516	650.500	390.056	64.201	484.373	4.044	1.634	51.032
196.809	654.100	389.970	64.975	479.750	4.787	1.771	50.737
198.096	658.100	391.704	64.734	476.232	4.487	1.790	50.751
199.390	662.000	393.239	68.748	478.635	4.727	2.014	50.696
200.686	666.000	394.033	63.985	486.944	4.874	1.945	50.290
201.977	669.600	395.258	63.002	484.830	4.866	1.750	52.466
203.265	673.600	401.038	64.846	480.168	4.785	2.386	51.520
204.553	677.500	396.399	66.451	494.596	5.103	2.085	51.185
205.874	681.500	399.774	63.584	488.341	5.057	2.055	50.758
207.165	685.100	399.321	63.995	493.722	4.764	2.406	51.709
208.458	689.100	399.009	66.178	488.321	4.612	1.953	52.600
209.750	693.000	395.244	65.668	495.047	4.786	2.000	52.209
211.043	697.000	399.989	62.251	499.552	4.509	2.176	53.739
212.334	700.600	401.890	65.884	488.698	4.759	2.094	54.511
213.625	704.600	407.396	65.356	494.852	4.981	1.796	55.948
214.919	708.500	404.966	67.490	498.879	4.590	2.194	54.856
216.211	712.500	400.955	65.442	503.728	4.481	2.517	56.664
217.541	716.500	415.693	66.205	506.518	5.030	1.937	55.317
218.834	720.400	406.910	66.966	500.970	5.213	2.574	57.488
220.128	724.000	413.858	66.382	506.589	4.980	2.504	56.802
221.419	728.000	408.440	67.871	500.155	5.169	1.792	57.765
222.747	731.900	412.749	67.824	501.506	5.001	2.112	55.252
224.042	735.900	411.847	66.642	500.715	5.060	1.826	58.450
225.336	739.800	407.018	67.048	507.072	5.508	2.601	59.117
226.668	743.800	414.213	69.755	510.490	5.113	2.239	58.855
227.962	747.700	420.685	68.813	515.802	5.049	2.612	57.271
229.256	751.300	411.465	69.200	509.685	5.526	2.181	58.814
230.549	755.300	416.516	69.694	519.016	4.886	2.234	59.786
231.862	759.200	424.010	71.428	514.366	5.167	2.173	60.037
233.158	763.200	422.005	68.813	527.319	5.318	2.467	62.950
234.449	767.100	429.068	70.085	520.374	5.651	2.160	60.610
235.738	770.700	422.878	69.574	524.511	4.945	2.535	61.212
237.030	774.700	430.223	69.853	524.207	5.190	2.678	61.093
238.323	778.700	427.225	69.491	527.226	5.158	2.924	61.335
239.617	782.300	434.891	72.841	537.866	4.793	1.972	62.048
240.908	786.300	429.336	69.778	540.213	5.605	2.327	64.445
242.201	790.200	428.964	69.031	541.804	5.315	2.540	64.440
243.489	794.200	441.650	70.849	548.223	5.079	2.559	65.033
244.781	797.800	432.139	72.263	544.400	5.548	2.345	67.098
246.068	801.800	440.376	71.420	555.597	5.573	2.190	63.793
