Thu, Oct 12, 2017	3:15 PM
 Notes: GUA_1.63E-9_30sec_0.025 L_more masses_101217
 waiting time: 50.000
 time(s)	 temp (K)	 MS1=28.936	 MS2=30.937	 MS3=42.078	 MS4=95.042	 MS5=109.505	 MS6=125.586	 MS7=109.505	 MS8=125.586
0.000	99.100	328.561	37.005	57.244	1.771	1.522	24.650
1.600	99.100	325.136	38.328	56.401	1.487	1.485	24.338
2.924	99.100	322.342	37.553	57.061	1.553	1.506	24.116
4.294	99.100	323.163	41.356	55.965	2.024	1.752	24.407
7.063	99.000	324.970	36.991	55.668	1.704	1.386	23.963
8.374	99.000	323.696	39.066	57.635	1.850	1.408	24.660
9.685	99.200	332.193	36.841	56.029	1.703	1.337	24.740
10.959	99.900	350.102	38.961	58.276	1.764	1.101	24.832
12.252	101.600	352.898	37.472	58.446	1.959	1.390	25.733
13.561	104.700	367.126	39.193	60.565	2.186	1.017	24.379
14.865	109.200	370.115	39.278	57.134	2.267	1.263	25.394
16.173	114.200	369.524	39.403	57.222	2.198	1.473	25.086
17.460	119.900	364.042	38.582	58.086	2.204	1.505	26.052
18.774	125.400	363.615	39.981	57.552	1.918	1.319	25.077
20.055	130.700	356.917	39.078	56.945	2.053	1.555	25.289
21.366	135.800	350.001	39.289	58.644	1.552	1.534	26.018
22.836	141.200	355.339	39.655	58.581	2.116	1.033	24.914
24.159	146.100	351.656	40.152	58.898	2.039	1.058	26.432
25.492	150.800	351.805	41.333	59.668	2.068	1.398	27.745
26.831	155.500	350.600	40.537	58.402	1.764	1.687	25.293
28.122	160.000	350.268	41.792	57.950	2.196	1.491	26.602
29.413	164.400	348.688	42.776	59.887	2.173	1.829	28.819
30.714	168.700	352.423	43.389	60.115	2.537	2.244	31.031
32.004	172.600	357.414	44.758	62.958	2.401	2.808	38.069
33.338	177.100	361.481	44.031	63.900	2.922	3.053	53.557
34.657	181.300	375.412	48.363	65.833	2.634	2.606	89.448
35.965	185.000	396.038	55.615	69.966	3.608	4.426	181.800
37.296	189.500	446.774	67.826	80.971	5.792	8.127	372.159
38.580	193.200	557.881	96.281	96.587	7.704	13.450	610.142
39.954	197.600	689.912	126.119	108.942	9.279	13.377	577.591
41.265	201.600	647.117	104.002	91.188	6.166	7.089	290.736
42.579	205.600	529.425	86.597	85.879	5.532	6.370	295.832
43.891	209.300	533.325	87.210	89.638	6.673	6.667	324.704
45.183	213.300	549.598	91.127	89.701	6.172	8.377	374.169
46.471	217.300	575.608	99.985	94.362	7.040	8.323	428.313
47.786	221.200	605.661	104.079	100.610	8.557	10.046	466.758
49.112	225.200	632.794	111.703	103.667	7.595	9.602	456.916
50.442	229.200	623.924	109.389	96.129	7.141	8.856	382.772
51.731	233.100	593.766	97.942	90.085	7.078	6.552	292.932
53.045	237.100	544.009	87.198	84.261	5.714	5.525	224.366
54.331	240.700	509.367	78.278	79.536	5.695	5.107	182.713
55.622	244.700	493.324	76.688	77.595	5.003	4.136	155.531
56.949	248.700	469.689	70.720	75.323	5.281	3.689	135.995
58.243	252.600	468.000	71.866	73.056	5.119	3.692	122.572
59.532	256.600	457.724	68.374	72.789	4.613	3.699	117.267
60.841	260.600	456.299	68.073	70.850	4.555	3.723	110.830
62.167	264.500	448.900	67.023	73.998	4.602	3.175	107.350
63.508	268.500	443.868	64.409	71.584	4.552	3.420	105.912
64.845	272.400	445.659	64.596	72.609	4.470	3.214	103.323
66.138	276.400	448.706	64.894	73.264	4.816	3.053	104.891
67.472	280.300	445.224	66.593	73.067	4.164	3.005	102.521
68.751	284.000	448.057	67.496	71.745	5.002	3.231	105.275
70.043	288.000	449.803	66.352	74.894	4.910	3.615	102.770
71.344	291.900	444.743	67.064	72.817	4.355	2.974	103.788
72.653	295.900	453.034	67.965	71.470	4.964	2.920	105.328
73.938	299.800	454.853	69.270	72.475	4.183	2.894	103.431
75.212	303.400	450.582	70.065	71.355	4.157	2.655	106.484
76.504	307.400	456.611	70.161	74.032	5.321	3.442	105.725
77.832	311.400	452.999	71.487	74.174	4.785	3.118	106.087
79.125	315.300	453.983	72.729	75.048	4.761	3.011	106.557
80.451	319.300	453.003	79.839	74.516	5.469	2.855	109.191
81.744	323.200	457.050	74.573	73.596	4.798	2.970	103.998
83.071	327.200	465.969	76.824	73.373	5.268	2.599	99.470
84.364	330.800	460.234	78.943	74.161	5.584	3.105	93.553
85.659	334.700	461.250	77.991	73.306	5.418	3.231	84.962
86.950	338.700	449.480	76.577	72.372	5.900	3.075	75.737
88.240	342.700	443.609	74.996	74.088	5.154	3.716	73.548
89.531	346.300	442.432	75.218	75.155	5.616	3.173	69.624
90.811	350.300	441.059	76.242	72.680	5.734	2.769	67.855
92.094	354.200	451.587	74.218	73.026	6.537	4.084	68.589
93.439	358.200	441.781	74.618	74.441	7.307	2.895	67.435
94.743	362.100	446.971	75.237	74.831	7.633	2.591	69.217
96.090	366.100	445.994	74.889	75.188	7.638	2.357	66.270
97.382	370.100	445.369	75.042	76.261	7.610	2.333	64.883
98.657	373.700	449.527	77.296	75.776	7.881	2.682	64.440
99.941	377.600	444.057	73.488	75.237	7.891	2.178	62.817
101.267	381.600	439.052	73.831	74.482	8.215	2.865	63.645
102.545	385.600	444.238	73.943	76.580	8.236	1.999	60.824
103.852	389.500	439.058	72.429	76.097	7.232	2.717	62.051
105.139	393.100	443.339	71.539	74.617	7.963	2.437	61.028
106.438	397.100	447.034	72.284	76.747	7.942	2.585	61.882
107.727	401.000	454.344	70.049	76.201	8.193	2.757	59.466
109.035	405.000	461.348	71.463	76.943	7.190	2.079	62.051
110.327	408.900	463.110	69.737	79.112	7.390	2.797	61.095
111.638	412.600	472.735	69.753	78.646	6.502	2.502	61.837
112.944	416.500	478.591	67.692	78.653	6.597	2.352	59.553
114.237	420.500	491.558	70.193	78.420	6.371	2.272	57.464
115.556	424.400	494.167	66.366	81.942	6.375	2.423	58.393
116.848	428.400	493.242	67.636	79.478	6.293	2.505	59.457
118.179	432.300	507.179	66.165	79.274	5.195	2.565	59.241
119.480	436.300	495.656	64.868	78.255	5.806	2.286	57.575
120.849	440.200	506.886	66.015	82.129	6.864	2.543	57.399
122.141	444.200	507.662	66.232	80.003	5.093	2.550	57.241
123.424	448.200	499.548	67.097	80.503	5.842	2.434	58.925
124.715	451.800	516.213	65.669	80.045	5.974	2.145	58.897
126.032	455.800	516.822	63.564	80.294	5.484	2.027	57.194
127.312	459.800	520.144	66.201	83.512	5.889	2.590	59.066
128.590	463.700	522.284	64.670	83.893	5.732	1.979	56.515
129.887	467.400	518.884	68.921	81.064	5.544	2.516	55.585
131.240	471.600	529.236	63.673	83.747	6.265	2.278	57.949
132.537	475.300	531.009	68.360	85.260	5.384	2.390	59.450
133.823	479.200	519.835	68.095	83.563	5.991	2.259	57.960
135.113	483.200	528.404	64.841	84.470	5.434	2.966	56.429
136.423	487.100	521.176	67.086	85.279	5.706	1.986	57.027
137.701	490.800	519.365	65.401	84.892	5.582	2.446	58.366
139.000	494.700	503.287	65.912	88.174	5.411	2.444	56.851
140.277	498.700	500.834	69.560	88.951	5.283	2.518	57.372
143.435	508.200	475.355	65.042	88.979	6.291	2.262	60.509
144.725	511.900	465.418	68.100	90.016	5.921	2.534	58.374
146.185	516.500	461.461	66.816	88.463	6.092	2.216	58.451
147.479	520.100	452.578	69.439	90.921	5.995	2.531	59.902
148.769	524.000	452.625	69.916	93.864	6.451	2.491	56.909
150.110	528.000	453.825	69.493	88.499	5.798	2.456	58.463
151.405	532.000	448.836	69.816	92.727	5.951	2.177	57.897
152.679	535.900	449.208	73.047	94.410	6.024	2.573	59.660
153.954	539.600	455.098	71.042	96.217	5.898	2.275	59.428
155.242	543.500	455.087	74.751	91.156	6.181	2.720	60.036
156.525	547.500	449.710	73.554	95.939	6.108	2.523	60.690
158.299	552.700	452.886	73.132	95.812	6.217	2.751	60.301
159.589	556.400	457.924	74.763	97.310	6.150	2.221	61.085
160.867	560.300	452.202	74.135	98.697	5.815	2.681	59.452
162.183	564.300	456.940	75.113	96.869	6.117	2.309	60.785
163.499	568.200	456.235	74.692	100.527	6.868	2.321	59.694
164.789	572.200	460.533	76.906	99.945	6.128	2.235	63.104
166.163	576.200	463.507	76.812	98.471	6.633	2.525	61.775
167.454	580.100	461.225	76.718	102.398	6.874	2.334	63.999
168.744	584.100	462.498	75.574	101.698	6.605	2.791	62.193
170.217	588.400	461.407	76.091	106.862	6.775	2.144	65.805
171.767	593.000	462.378	79.229	105.829	7.183	2.416	64.384
173.059	596.900	463.919	77.229	106.231	7.396	2.497	63.840
174.415	600.900	466.279	81.156	103.377	7.123	2.882	65.272
175.702	604.800	467.096	80.904	107.339	6.396	2.515	66.313
176.998	608.800	467.759	81.133	107.511	6.681	2.454	65.651
178.309	612.800	472.204	80.597	108.299	7.752	2.691	65.003
179.589	616.400	474.733	81.495	109.121	6.970	2.798	68.095
180.868	620.300	479.968	81.650	110.932	6.712	3.018	67.260
183.240	627.300	482.799	83.712	111.048	6.833	2.491	68.479
185.244	633.500	481.265	84.039	115.193	6.816	2.583	66.981
187.203	639.100	485.832	84.320	115.431	6.932	2.342	68.969
189.735	646.700	495.021	84.971	119.745	7.197	2.126	71.213
191.043	650.700	492.374	87.339	118.692	7.867	2.397	70.192
192.340	654.600	498.519	86.929	120.671	7.332	2.641	72.419
193.626	658.600	503.060	86.189	119.094	7.085	2.558	70.831
194.912	662.500	491.201	87.307	124.544	7.515	2.968	72.561
196.201	666.100	497.467	85.718	122.208	7.381	2.151	74.754
197.495	670.100	499.775	87.969	123.192	7.289	3.280	75.192
198.788	674.100	503.462	87.572	121.166	7.489	2.857	75.551
217.832	731.100	532.716	96.602	141.023	8.084	3.606	87.939
219.459	736.000	533.444	94.005	141.916	9.032	3.418	87.838
225.173	753.100	545.433	94.145	149.126	8.720	2.744	92.548
226.783	757.800	550.999	99.873	149.557	8.449	3.281	90.206
228.093	761.700	551.130	97.731	150.042	9.715	3.638	90.467
229.670	766.700	553.275	97.189	149.905	9.541	2.670	93.470
230.963	770.300	552.908	102.567	154.906	9.379	3.320	92.231
232.256	774.300	561.167	100.522	155.938	9.671	3.512	96.889
233.549	778.200	558.509	101.816	156.016	9.566	3.189	95.726
234.840	782.200	560.260	101.385	157.933	9.467	3.462	96.262
236.156	786.100	568.442	102.395	158.108	10.341	3.160	99.805
237.450	789.700	572.173	104.524	161.740	9.406	3.496	99.936
238.741	793.700	575.189	100.991	160.210	10.051	3.880	101.293
240.033	797.600	585.100	102.979	163.756	9.208	3.426	99.916
241.329	801.600	580.411	105.635	164.306	9.994	3.642	99.981
