Thu, Oct 12, 2017	12:34 PM
 Notes: GUA_7.53E-10_30sec_0.01 L_101217
 waiting time: 50.000
 time(s)	 temp (K)	 MS1=1.933	 MS2=27.907	 MS3=78.871	 MS4=125.586	 MS5=17.701	 MS6=78.871	 MS7=109.505	 MS8=125.586
0.000	97.700	3308.281	8462.604	2.555	5.238
1.667	97.800	3322.365	8363.578	3.228	5.213
2.535	97.800	3330.911	8400.425	2.940	4.590
3.431	97.800	3288.636	8406.220	3.189	4.651
4.320	97.800	3274.850	8378.990	3.182	5.043
5.206	97.800	3338.585	8330.043	2.717	4.585
6.071	97.800	3318.221	8316.008	2.956	4.790
6.937	97.800	3278.641	8383.333	3.443	4.842
7.818	97.800	3261.914	8448.365	2.405	4.805
8.682	97.900	3297.027	8565.922	2.814	5.140
9.547	98.100	3347.854	9389.882	2.613	4.967
10.412	98.500	3322.387	11619.754	3.134	4.843
11.278	99.300	3328.031	12287.755	3.142	4.240
12.154	100.700	3413.764	11658.791	2.797	5.022
13.012	102.400	3436.886	12372.299	3.272	4.733
13.892	105.000	3435.922	12834.429	3.275	5.220
14.753	108.200	3435.030	12553.297	2.699	5.004
15.650	111.800	3473.941	11998.446	2.766	5.254
16.512	115.500	3463.275	11549.359	2.688	4.458
17.382	119.300	3434.241	11207.959	2.922	4.860
18.246	122.900	3431.454	10886.962	2.718	5.642
19.129	126.500	3468.951	10739.321	2.647	4.582
19.995	130.000	3419.768	10662.520	3.453	4.940
20.858	133.400	3399.205	10598.571	2.558	5.103
21.718	136.700	3434.767	10423.725	3.138	4.507
22.582	140.000	3413.771	10199.066	2.600	5.019
23.456	142.900	3372.628	10163.035	2.448	5.219
24.337	146.100	3370.124	10014.948	3.317	5.201
25.204	149.300	3398.552	9805.548	3.226	5.191
26.067	152.400	3383.068	9774.026	3.237	4.672
26.932	155.400	3354.126	9794.047	2.817	5.004
27.823	158.400	3350.567	9643.159	2.585	4.519
28.686	161.400	3358.167	9516.838	3.377	4.628
29.565	164.300	3328.575	9402.491	3.036	5.326
30.431	167.100	3290.982	9405.280	3.203	5.870
31.292	170.000	3309.463	9392.085	3.493	6.085
32.153	172.800	3319.613	9257.346	3.472	7.415
33.049	175.600	3347.963	9183.946	3.710	10.113
33.914	178.300	3293.072	9244.291	3.680	14.490
34.777	180.800	3314.173	9228.383	4.034	26.848
35.641	183.500	3341.611	9196.619	3.956	43.287
36.506	186.200	3366.892	9268.809	4.842	71.698
37.380	189.000	3350.225	9318.264	6.842	119.926
38.245	191.700	3399.245	9258.862	9.766	187.559
39.122	194.400	3448.325	9321.054	11.245	258.579
39.988	197.100	3494.853	9404.299	13.055	251.938
40.853	199.700	3504.937	9115.908	8.221	131.078
41.744	202.400	3569.988	9012.666	7.312	126.778
42.608	205.000	3670.559	9024.180	6.957	130.314
43.473	207.400	3731.585	9124.097	8.339	143.101
44.338	210.000	3760.025	9061.217	8.455	167.134
45.203	212.700	3883.143	9085.086	9.653	186.171
46.068	215.400	3938.287	9082.526	10.858	221.533
46.968	218.000	3985.869	9174.508	11.475	242.625
47.834	220.700	4074.585	9209.228	13.547	264.296
48.698	223.300	4161.097	9083.557	13.176	273.802
49.562	226.000	4198.629	9058.466	12.506	272.063
50.429	228.600	4169.987	9125.320	13.419	245.411
51.330	231.300	4205.830	9087.136	11.114	203.099
52.196	233.900	4190.025	8934.299	8.741	166.249
53.120	236.600	4164.530	8853.486	8.132	131.421
53.987	239.200	4101.201	8929.930	7.240	106.324
54.886	241.800	4042.021	8888.040	5.883	89.596
55.752	244.500	4007.296	8746.538	5.721	77.574
56.617	247.100	4019.000	8778.341	4.932	65.451
57.483	249.800	3978.744	8886.129	5.010	57.009
58.348	252.400	3946.278	8844.252	5.319	51.912
59.213	255.000	3951.902	8791.892	4.993	48.672
60.102	257.700	3972.748	8826.472	4.774	43.775
60.966	260.000	3957.364	8910.724	4.734	43.882
61.857	263.000	3929.920	8889.288	4.542	41.175
62.724	265.300	3940.894	8773.386	4.974	41.284
63.590	267.900	3988.094	8813.239	4.531	40.010
64.455	270.500	3993.371	8864.185	5.095	38.649
65.323	273.200	3981.889	8865.433	4.579	38.274
66.199	275.800	4067.955	8754.893	4.541	39.582
67.083	278.500	4107.586	8760.943	4.230	40.663
67.949	281.100	4124.662	8887.276	4.944	39.743
68.814	283.800	4149.981	8924.504	4.647	39.980
69.679	286.400	4274.253	8871.075	4.951	41.071
70.545	289.100	4337.452	8860.274	4.673	43.123
71.413	291.400	4324.306	8938.132	4.530	43.919
72.276	294.000	4404.585	8956.116	4.751	42.705
73.137	296.600	4501.876	8887.250	4.857	44.460
73.997	299.300	4582.467	8950.474	5.020	43.921
74.866	301.900	4649.854	9012.641	4.839	45.422
75.734	304.600	4723.202	8895.962	5.123	44.458
76.599	307.200	4904.018	8826.294	5.041	46.285
77.468	309.800	5095.108	8963.389	5.236	50.085
78.345	312.100	5330.283	8959.415	5.318	52.213
79.207	314.800	5679.265	8860.364	5.225	51.161
80.070	317.400	6059.564	8874.272	5.532	50.705
80.937	320.000	6429.769	8947.634	4.559	51.493
81.802	322.700	6898.208	9001.407	5.377	51.065
82.670	325.300	7333.897	8893.771	5.181	47.793
83.536	327.900	7605.550	8888.295	5.268	43.581
84.401	330.600	7705.553	9006.604	5.974	40.834
85.268	332.900	7750.149	8982.672	5.527	38.435
86.141	335.500	7723.464	8935.509	6.076	34.891
87.010	338.100	7473.100	8931.446	5.893	30.605
87.897	340.800	7124.666	9074.527	6.764	26.099
88.762	343.400	6741.711	9084.512	7.252	23.171
89.654	346.100	6370.880	9013.838	7.828	20.753
90.520	348.700	6029.785	9091.556	7.302	19.954
91.421	351.400	5734.111	9212.374	7.694	19.461
92.286	354.000	5572.529	9213.915	8.224	18.566
93.154	356.600	5524.335	9095.950	9.043	18.291
94.019	359.300	5554.828	9148.080	9.949	18.366
94.885	361.900	5575.122	9168.688	10.333	18.483
95.773	364.600	5721.954	9127.918	11.386	18.330
96.637	367.200	6027.439	9003.063	11.674	17.365
97.498	369.800	6441.824	9050.926	12.387	16.766
98.365	372.500	6785.740	9116.952	11.934	16.836
99.229	374.800	7255.664	9004.528	11.355	16.710
100.112	377.400	7635.996	9066.210	12.481	17.404
100.979	380.100	7816.389	9091.925	12.266	15.492
101.895	383.000	7774.119	9151.583	12.674	16.197
102.755	385.400	7880.822	9258.390	13.384	17.027
103.617	388.000	7997.819	9376.406	14.866	16.258
104.484	390.600	7880.791	9618.259	15.056	15.044
105.365	393.300	7897.071	9900.766	15.284	16.309
106.232	395.900	7901.127	10091.609	15.539	15.494
107.098	398.500	7859.231	10442.982	15.594	16.402
107.992	401.200	7782.789	10961.980	13.591	14.319
108.857	403.800	7558.344	11432.439	15.418	14.224
109.723	406.400	7342.635	11812.558	13.076	16.320
110.591	409.100	7089.329	12421.628	12.239	15.863
111.459	411.700	6765.928	13058.081	12.176	14.903
112.343	414.300	6405.066	13467.952	9.589	13.927
113.207	416.700	6140.993	13756.599	10.895	14.862
114.074	419.300	5876.279	14125.344	9.420	13.706
114.945	421.900	5554.758	14546.246	9.593	13.364
115.812	424.500	5383.994	14780.673	8.282	13.946
116.678	427.200	5246.045	14948.233	7.520	14.955
117.546	429.800	5158.986	15003.650	7.181	15.441
118.411	432.400	4970.872	15290.576	6.373	13.805
119.277	435.100	4914.952	15513.222	6.358	14.123
120.164	437.700	4934.454	15599.525	5.815	14.932
121.033	440.400	4858.904	15684.387	5.363	15.468
121.896	442.700	4799.850	15985.910	5.173	13.731
122.759	445.300	4778.633	16093.329	5.046	13.492
123.624	447.900	4796.158	16123.617	4.565	14.090
124.490	450.600	4753.580	16330.533	4.853	14.122
125.363	453.200	4697.448	16448.141	5.010	14.700
126.230	455.900	4722.829	16367.481	4.638	13.243
127.097	458.600	4707.991	16465.832	4.894	13.169
127.964	461.200	4663.657	16633.813	4.259	14.471
128.829	463.500	4669.269	16628.362	4.187	13.653
129.694	466.100	4692.039	16525.362	4.137	14.392
130.559	468.800	4723.250	16574.780	4.193	13.153
131.427	471.400	4700.999	16750.059	4.379	14.382
132.293	474.100	4738.383	16729.540	5.010	12.931
133.156	476.700	4805.686	16553.688	4.156	12.647
134.018	479.300	4846.877	16431.902	4.543	13.807
134.883	482.000	4790.543	16327.311	4.312	12.401
135.749	484.300	4879.933	16067.920	4.000	13.567
136.613	486.900	4974.020	15696.334	4.804	12.555
137.477	489.600	4997.989	15586.533	4.340	12.893
138.369	492.200	5004.166	15217.546	4.685	14.331
139.238	494.800	5029.290	14634.267	4.562	13.401
140.102	497.500	5052.198	14105.717	4.399	13.792
140.967	500.100	5074.609	13778.824	4.620	13.269
141.834	502.700	5071.413	13287.935	4.184	12.866
142.699	505.400	5141.918	12581.750	4.868	12.857
143.562	507.700	5129.811	11977.559	4.659	13.736
144.427	510.300	5158.804	11779.532	4.434	12.546
145.293	512.900	5175.755	11335.616	4.473	12.499
146.157	515.600	5169.392	10828.680	4.739	13.183
147.021	518.200	5183.670	10549.943	4.125	13.492
147.889	520.900	5144.115	10367.633	4.733	14.133
148.757	523.500	5154.075	10177.644	4.456	13.509
149.637	526.100	5195.553	10009.994	4.562	12.406
150.500	528.800	5147.098	9943.127	4.359	13.968
151.364	531.100	5140.418	9899.722	4.147	13.950
152.230	533.700	5106.392	9688.067	4.655	12.847
153.096	536.400	5078.082	9599.320	4.671	13.222
153.957	539.000	5033.751	9607.675	5.180	13.750
154.822	541.600	5006.383	9534.427	4.653	13.846
155.688	544.300	4950.970	9448.495	4.711	13.649
156.552	546.900	4934.654	9463.906	4.600	13.323
157.420	549.200	4831.699	9516.036	5.228	13.987
158.287	551.900	4768.507	9437.478	4.884	12.424
159.152	554.500	4743.410	9364.765	5.340	13.716
160.027	557.100	4665.692	9353.150	4.942	14.214
160.894	559.800	4531.693	9355.213	5.354	13.435
161.758	562.400	4479.582	9361.339	5.324	13.241
162.621	565.100	4458.955	9221.340	4.813	13.675
163.488	567.700	4394.140	9239.681	4.899	14.103
164.354	570.000	4366.736	9347.673	5.735	13.800
165.238	573.000	4317.771	9201.127	4.914	13.038
166.099	575.300	4345.393	9221.493	4.683	13.178
166.961	577.900	4285.546	9299.618	5.153	13.435
167.829	580.600	4278.007	9311.705	4.901	14.216
168.697	583.200	4285.197	9187.194	5.027	14.262
169.564	585.800	4306.560	9197.701	4.747	13.968
170.454	588.500	4305.476	9255.295	5.570	13.317
171.318	591.100	4283.994	9256.900	5.409	13.334
172.183	593.700	4357.442	9171.834	5.354	13.704
173.051	596.400	4354.852	9131.000	4.792	12.903
173.915	598.700	4328.536	9221.773	5.004	14.105
174.782	601.300	4316.877	9254.850	5.460	13.360
175.647	604.000	4407.607	9134.248	5.228	14.574
176.514	606.600	4387.475	9183.564	5.685	13.651
177.378	609.200	4371.578	9155.212	5.808	14.395
178.243	611.900	4388.101	9179.463	4.756	14.165
179.160	614.500	4431.535	9114.481	5.095	14.125
180.029	617.100	4436.969	9122.480	4.852	14.792
180.898	619.800	4391.785	9238.025	5.014	14.336
181.762	622.400	4392.717	9184.761	5.441	14.609
182.626	625.100	4470.560	9108.533	4.506	14.215
183.516	627.700	4451.647	9148.271	5.108	14.072
184.380	630.300	4423.999	9270.528	5.310	13.607
185.243	632.600	4397.934	9152.041	5.151	13.357
186.108	635.300	4492.650	9204.388	5.585	14.159
186.975	637.900	4497.505	9269.560	5.338	14.080
187.842	640.600	4477.614	9273.203	5.136	15.107
188.708	643.200	4521.004	9194.657	4.423	14.847
189.572	645.900	4532.819	9223.429	5.655	15.127
190.439	648.500	4518.251	9377.069	5.447	15.512
191.306	651.100	4527.661	9381.017	4.878	14.848
192.171	653.400	4597.136	9309.387	5.704	14.931
193.036	656.000	4558.027	9297.313	5.396	15.476
193.897	658.700	4572.529	9395.167	5.254	14.551
194.760	661.300	4553.196	9382.278	5.166	16.131
195.626	664.000	4601.157	9269.802	5.080	14.865
196.492	666.600	4609.837	9407.929	5.422	14.206
197.360	669.200	4607.786	9452.672	5.488	14.406
198.226	671.500	4569.978	9336.936	5.029	14.661
199.093	674.200	4572.752	9339.560	5.086	14.947
199.959	676.800	4541.425	9482.883	4.843	15.938
200.826	679.500	4549.871	9479.393	5.162	15.514
201.694	682.100	4545.972	9380.533	5.335	16.282
202.563	684.700	4511.772	9393.893	5.581	15.429
203.423	687.300	4428.258	9443.718	5.366	16.030
204.289	690.000	4403.942	9454.506	5.782	16.101
205.156	692.300	4343.373	9369.274	5.637	16.350
206.023	695.000	4301.066	9415.953	5.123	16.085
206.887	697.600	4186.514	9458.391	5.640	15.982
207.753	700.200	4113.630	9407.598	5.198	17.501
208.618	702.900	4083.384	9491.098	5.290	16.955
209.487	705.500	3979.586	9541.980	5.796	16.850
210.356	708.200	3868.593	9492.104	5.592	15.666
211.235	710.800	3746.880	9401.612	4.815	17.115
212.102	713.400	3734.145	9421.888	4.924	17.063
212.969	715.800	3630.932	9560.142	5.504	17.999
213.834	718.400	3554.831	9574.191	5.240	17.612
214.700	721.000	3523.803	9499.071	5.632	16.701
215.567	723.700	3449.496	9508.267	5.323	18.176
216.434	726.300	3392.603	9685.138	4.879	17.710
217.301	728.900	3363.913	9652.584	5.804	18.023
218.169	731.600	3354.294	9533.383	5.234	18.005
219.034	734.200	3353.191	9555.583	5.419	19.107
219.903	736.800	3292.637	9674.427	5.534	18.464
220.769	739.100	3289.963	9698.919	5.190	18.457
221.636	741.700	3292.548	9637.567	5.302	19.843
222.501	744.400	3284.950	9715.489	5.358	19.957
223.367	747.000	3265.554	9731.167	5.285	18.688
224.232	749.600	3259.348	9707.439	5.452	19.261
225.099	752.300	3291.730	9759.455	4.819	19.813
225.966	754.900	3279.020	9883.852	5.683	21.058
226.832	757.600	3241.590	9853.030	5.731	19.581
227.697	759.900	3261.536	9823.583	5.494	21.466
228.561	762.500	3259.995	9853.170	5.803	20.292
229.428	765.100	3239.016	9959.163	6.037	20.456
230.293	767.800	3227.207	9975.758	5.632	20.434
231.152	770.400	3253.160	9897.849	6.093	21.099
232.017	773.000	3250.161	9902.358	5.916	21.279
232.883	775.700	3221.287	10078.019	4.939	20.215
233.749	778.000	3217.762	10080.719	5.912	21.980
234.615	780.600	3256.483	10070.365	6.009	21.645
235.473	783.300	3274.085	10176.281	5.945	22.063
236.336	785.900	3236.147	10200.225	5.751	22.416
237.199	788.500	3258.629	10139.230	6.458	21.675
238.066	791.200	3266.880	10181.350	5.447	23.130
238.931	793.800	3237.618	10298.449	5.460	24.338
239.796	796.100	3212.500	10400.710	5.427	23.514
240.663	798.800	3272.294	10275.281	5.732	21.989
