Tue, Sep 26, 2017	2:13 PM
 Notes: furfural_2.2E-9_30s_92617
 waiting time: 30.000
 time(s)	 temp (K)	 MS1=1.922	 MS2=17.627	 MS3=27.844	 MS4=39.000	 MS5=41.000	 MS6=68.654	 MS7=82.865	 MS8=97.084
0.000	95.000	3310.609	1091.767	7173.294	334.292	154.071	95.687	88.173	134.291
1.066	95.000	2596.298	1084.239	7144.305	334.011	152.695	94.961	88.402	132.304
2.103	95.000	2594.031	1075.999	7275.491	330.649	152.988	96.031	87.841	132.941
3.146	95.000	2582.568	1073.668	7123.647	329.044	151.218	95.674	87.638	132.419
4.166	95.000	2557.681	1080.266	7151.030	325.822	154.224	95.458	87.625	130.916
5.189	95.000	2570.328	1064.460	7202.078	322.956	153.460	95.394	87.854	130.267
6.191	95.000	2582.491	1083.297	7172.415	325.758	152.262	94.630	87.727	129.528
7.190	95.000	2563.221	1078.495	7169.918	320.460	152.670	95.343	87.230	129.795
8.216	95.000	2538.525	1082.227	7160.952	322.663	151.218	94.388	87.689	127.388
9.214	95.000	2547.352	1103.650	7210.433	321.046	153.103	95.725	87.268	129.439
10.212	95.200	2539.073	1079.960	7503.524	323.886	152.071	94.923	87.574	127.834
11.262	95.700	2518.032	1092.034	8823.976	342.481	152.899	95.407	87.396	125.732
12.272	96.700	2537.315	1102.529	9686.603	350.365	153.905	95.279	87.867	126.764
13.271	98.300	2529.495	1102.134	9367.988	341.755	153.472	94.936	88.440	126.726
14.299	100.900	2603.647	1115.698	9579.273	343.589	152.135	95.025	88.402	124.866
15.319	104.000	2581.574	1107.101	9885.419	350.531	153.676	95.038	87.943	125.121
16.341	107.700	2632.495	1124.155	9268.796	340.342	153.905	94.337	87.650	126.344
17.340	111.800	2581.702	1123.060	9016.958	336.521	153.689	95.483	88.313	124.051
18.358	116.400	2593.101	1123.913	8761.491	333.935	152.084	95.216	87.306	124.968
19.392	120.500	2578.467	1147.297	8374.379	328.471	153.816	95.904	87.383	122.790
20.406	124.600	2573.130	1158.302	8317.027	327.796	153.778	94.681	88.300	122.918
21.403	128.600	2568.036	1156.544	8229.566	322.752	154.415	95.050	87.994	123.376
22.421	132.900	2544.231	1172.223	8187.752	321.695	151.715	95.267	87.599	121.517
23.421	136.800	2550.969	1193.531	8128.273	323.924	151.422	94.655	87.536	121.007
24.440	140.500	2568.596	1212.979	8053.968	329.057	154.440	94.146	87.587	123.287
25.435	144.200	2576.187	1237.777	7993.355	322.230	151.511	94.821	87.803	125.070
26.432	147.800	2555.745	1270.752	7864.603	329.172	155.141	94.120	87.510	129.859
27.431	151.400	2529.521	1308.936	7882.102	349.512	154.568	95.127	87.523	143.882
28.428	154.800	2551.542	1307.586	7848.262	382.486	157.879	95.700	87.447	169.062
29.427	158.200	2551.453	1314.349	7879.186	456.944	165.394	97.508	88.249	208.723
30.422	161.500	2549.466	1319.036	7791.164	558.198	166.540	99.686	87.383	258.166
31.450	165.200	2556.407	1299.880	7831.055	639.470	172.271	101.036	88.402	279.805
32.489	168.400	2543.976	1291.512	7695.271	648.347	171.711	101.953	87.548	274.532
33.489	171.600	2512.033	1314.744	7722.617	686.951	172.908	102.119	88.300	318.307
34.486	174.800	2563.056	1308.477	7674.205	753.130	177.582	103.189	88.262	302.018
35.524	178.200	2553.198	1324.729	7559.628	677.539	173.227	102.106	87.306	274.188
36.536	181.300	2552.828	1309.713	7576.542	616.595	170.093	100.985	87.332	260.051
37.572	184.400	2551.173	1305.688	7598.857	640.756	172.679	101.622	87.523	289.014
38.580	187.500	2549.389	1325.837	7535.607	738.317	181.365	103.023	87.192	349.563
39.608	190.800	2551.491	1320.335	7576.377	895.625	184.014	108.653	88.122	435.012
40.610	193.900	2582.861	1307.955	7624.686	1124.359	200.635	112.385	87.982	558.555
41.611	196.900	2537.978	1320.704	7691.221	1449.177	221.358	117.836	87.650	726.409
42.604	199.900	2523.713	1330.078	7738.333	1838.696	241.761	125.312	88.020	911.533
43.600	202.900	2547.020	1315.215	7750.395	2144.116	254.485	130.547	88.287	948.214
44.598	205.900	2567.462	1334.345	7724.705	2026.227	249.913	127.261	87.765	816.341
45.594	208.900	2533.380	1320.067	7611.682	1677.338	226.529	117.657	87.982	610.902
46.591	211.900	2528.056	1327.404	7511.777	1277.107	204.660	111.799	87.816	492.326
47.592	214.900	2521.777	1338.484	7499.461	1083.233	192.471	108.271	87.485	427.981
48.591	217.900	2551.364	1350.176	7490.469	967.777	188.574	107.456	88.109	391.173
49.590	221.200	2517.701	1360.136	7474.536	889.919	187.033	105.010	87.676	359.650
50.627	224.200	2523.509	1342.484	7467.213	824.607	184.600	104.934	88.045	329.019
51.626	227.100	2510.747	1349.068	7437.855	778.335	182.244	104.730	87.638	308.004
52.625	230.100	2529.661	1349.043	7544.421	729.822	177.939	103.482	88.491	292.567
53.625	233.100	2537.850	1352.494	7394.717	696.733	176.245	104.080	88.262	280.034
54.696	236.400	2544.588	1352.851	7439.804	672.101	174.169	103.023	87.396	271.374
55.726	239.400	2504.315	1349.017	7493.794	657.301	176.258	107.532	87.574	263.477
56.738	242.700	2468.946	1355.678	7451.483	638.706	172.513	104.437	87.192	259.847
57.733	245.600	2519.879	1361.435	7532.945	635.687	174.169	103.265	88.032	258.064
58.759	248.600	2522.274	1379.407	7579.472	629.459	174.538	106.475	88.542	251.416
59.782	251.600	2501.526	1366.275	7587.916	627.625	172.284	109.799	87.880	248.754
60.821	254.900	2505.984	1382.540	7593.711	625.944	173.863	111.544	88.593	248.244
61.835	257.800	2501.806	1399.059	7594.004	636.146	176.449	116.295	88.083	245.098
62.835	260.800	2484.854	1392.041	7574.797	642.055	175.608	120.854	88.797	249.072
63.869	263.800	2499.590	1419.768	7578.020	670.508	177.812	129.642	88.555	248.461
64.871	266.700	2520.121	1430.582	7566.124	704.910	179.875	146.824	89.395	250.728
65.872	270.000	2477.976	1453.596	7567.066	746.392	182.460	167.763	89.026	251.467
66.869	273.000	2480.523	1453.342	7542.485	808.037	182.015	192.688	88.835	249.416
67.889	276.000	2441.384	1480.712	7566.875	871.120	185.441	224.873	89.930	249.059
68.886	279.000	2533.762	1490.710	7568.289	907.355	186.281	239.341	89.981	246.754
69.902	281.900	2506.557	1512.974	7716.185	899.344	189.262	224.987	89.828	242.869
70.903	284.900	2603.545	1530.996	7567.308	824.123	188.447	192.408	89.497	239.660
71.902	287.900	2660.337	1545.324	7546.777	749.780	186.485	162.948	89.828	234.451
72.905	290.900	2764.393	1534.447	7466.041	703.738	189.096	149.804	89.230	231.216
73.907	294.200	2838.736	1552.253	7531.748	692.288	190.255	149.397	88.415	227.713
74.920	297.100	2911.869	1551.463	7592.004	694.033	198.649	152.695	89.777	218.963
75.981	300.100	3002.960	1547.808	7538.091	694.020	207.004	158.350	89.128	214.365
76.983	303.400	3015.009	1558.328	7525.953	701.254	211.843	164.464	88.975	208.175
77.985	306.400	3053.791	1566.429	7614.612	712.080	216.811	174.003	89.905	201.272
78.985	309.300	3041.628	1577.471	7611.275	728.485	222.708	181.773	89.523	200.190
79.987	312.300	3024.319	1577.802	7544.166	743.794	230.388	189.134	90.007	193.363
80.986	315.300	3037.094	1581.814	7520.285	758.161	234.311	196.254	89.370	191.694
81.982	318.200	3059.102	1595.124	7632.341	768.363	236.285	201.425	90.414	189.325
82.985	321.200	3068.412	1600.728	7621.171	781.927	241.825	214.021	90.656	184.804
83.987	324.100	3066.591	1604.778	7468.996	781.978	243.646	220.173	90.873	183.314
84.990	327.100	3029.554	1608.854	7632.608	794.714	241.723	220.033	90.134	178.780
85.993	330.100	3047.232	1606.854	7457.176	803.795	242.105	229.522	90.325	173.927
86.992	333.400	3060.108	1612.420	7470.218	792.600	238.743	233.737	90.185	170.590
87.996	336.400	3065.598	1618.177	7478.141	797.504	238.361	237.482	90.007	166.693
89.030	339.300	3072.157	1625.373	7419.196	792.600	235.024	233.967	90.363	165.623
90.073	342.600	3067.177	1637.625	7434.913	783.022	230.311	232.209	90.236	162.668
91.074	345.600	3088.587	1648.413	7595.787	765.726	228.503	233.394	90.962	156.504
92.075	348.500	3067.164	1666.015	7510.134	750.646	222.287	230.910	89.867	158.350
93.077	351.500	3088.842	1661.990	7508.211	728.536	217.639	222.326	89.739	154.096
94.121	354.500	3052.912	1676.115	7476.536	704.820	213.779	213.920	90.134	154.937
95.160	357.800	3124.975	1649.661	7649.790	677.857	207.590	207.921	90.198	150.887
96.162	360.700	3101.973	1657.418	7671.161	649.366	200.292	193.350	89.892	151.944
97.162	363.700	3128.681	1690.647	7615.261	617.436	200.686	181.607	89.930	148.989
98.185	366.700	3146.169	1675.605	7615.974	582.321	195.974	169.011	89.701	150.186
99.185	369.700	3178.532	1699.308	7620.636	540.508	190.459	157.128	89.281	150.925
100.229	373.000	3115.550	1708.071	7725.189	515.480	187.186	140.086	88.287	146.264
101.230	375.900	3117.970	1702.097	7892.877	483.283	184.091	132.113	88.516	147.486
102.231	378.900	3125.039	1700.785	7867.341	460.956	178.487	121.058	88.504	145.983
103.230	381.900	3100.355	1720.578	7856.158	438.565	176.844	114.601	87.854	143.665
104.231	384.800	3126.949	1724.997	8037.105	420.836	173.991	109.290	87.752	144.850
105.233	387.800	3104.355	1742.472	8136.246	412.137	171.978	104.526	87.994	141.780
106.233	391.100	3117.741	1742.459	8250.975	397.872	169.253	101.953	88.465	141.653
107.229	394.100	3146.627	1746.012	8494.828	397.375	170.947	100.145	87.498	141.118
108.226	397.000	3160.701	1776.262	8649.257	390.294	170.743	99.088	87.217	136.877
109.226	400.000	3200.731	1792.653	8877.558	390.510	168.794	98.273	87.982	137.615
110.230	403.000	3224.816	1785.011	9209.457	385.263	169.508	97.292	88.657	135.629
111.229	405.900	3288.447	1801.403	9527.537	388.434	167.419	97.406	88.236	131.973
112.228	408.900	3356.243	1817.388	9820.857	386.193	168.667	97.661	87.548	131.706
113.232	411.900	3384.009	1812.306	9964.601	383.709	165.776	96.477	87.243	130.725
114.229	414.800	3398.618	1821.272	10486.197	378.831	169.240	96.617	87.650	129.146
115.235	417.800	3471.623	1852.043	10859.273	382.193	168.654	96.273	88.351	127.554
116.235	420.700	3498.395	1849.827	11201.157	382.053	166.183	95.776	87.319	125.045
117.235	424.000	3565.274	1850.057	11444.513	388.027	165.980	96.158	87.867	125.299
118.236	427.000	3530.096	1863.837	11757.524	387.556	168.056	94.630	87.192	124.739
119.234	430.000	3521.868	1880.777	11849.303	383.098	165.992	96.107	88.096	123.300
120.235	432.900	3481.226	1893.743	12072.101	385.709	165.980	95.649	88.173	122.217
121.238	435.900	3417.124	1905.919	12118.182	387.632	167.075	95.496	87.548	123.007
122.239	438.900	3372.126	1905.307	12324.283	383.849	165.929	95.878	88.096	119.988
123.241	441.800	3316.213	1920.833	12371.905	387.301	168.463	94.859	87.281	120.892
124.242	444.800	3224.714	1956.890	12577.152	388.383	167.584	95.152	87.548	117.925
125.242	447.800	3208.959	1944.803	12700.874	390.167	165.508	95.521	86.759	118.778
126.241	450.800	3150.932	1957.081	12944.637	392.102	166.922	95.139	88.389	117.696
127.241	454.100	3132.923	1953.948	13117.968	390.905	167.024	95.254	87.841	117.161
128.263	457.000	3119.040	1964.825	13489.006	399.910	164.629	94.999	88.185	117.428
129.308	460.000	3144.042	1994.271	13787.867	402.865	168.107	95.050	87.650	117.186
130.318	463.000	3249.270	1985.445	14218.422	396.624	167.342	95.738	87.447	117.479
131.355	466.300	3316.073	2015.478	14535.840	402.585	169.087	94.757	86.937	117.301
132.357	469.200	3409.902	2030.214	14609.597	402.202	169.151	95.585	87.625	115.709
133.358	472.200	3597.306	2057.775	14496.841	410.392	167.737	94.834	87.803	116.639
134.359	475.200	3719.449	2052.120	14897.670	408.915	166.387	94.312	87.370	113.556
135.402	478.500	3825.149	2065.685	14766.714	407.450	170.119	94.312	87.638	116.893
136.402	481.400	3946.680	2103.066	14724.671	404.928	168.323	95.254	87.268	113.926
137.403	484.400	3998.530	2100.582	14477.291	399.604	168.832	94.044	87.052	114.078
138.401	487.400	4069.688	2124.094	14070.017	396.917	168.680	95.763	87.905	114.461
139.401	490.300	4041.617	2136.932	13762.648	391.262	168.820	96.260	87.217	114.333
140.403	493.300	4002.593	2143.555	13119.789	377.506	169.813	94.910	87.854	113.480
141.404	496.300	3922.812	2112.020	12370.440	375.914	168.616	95.394	87.587	112.843
142.399	499.300	3832.294	2166.901	11767.051	360.414	170.972	95.038	87.548	113.684
143.423	502.600	3691.289	2167.742	11079.219	355.638	168.374	95.509	88.376	112.346
144.424	505.500	3553.391	2180.274	10464.927	344.990	170.756	95.471	88.274	112.690
145.482	508.500	3413.761	2174.492	9831.480	343.959	170.807	94.885	87.740	110.716
146.520	511.800	3415.251	2200.551	9181.755	325.580	168.208	94.796	87.192	111.760
147.523	514.700	3349.964	2192.196	8697.286	316.664	167.139	94.757	88.071	112.244
148.523	517.700	3266.069	2231.602	8198.438	313.748	169.737	94.732	87.281	110.805
149.521	520.700	3231.044	2245.269	8019.924	309.468	170.106	94.897	87.434	110.984
150.520	523.600	3239.361	2249.382	7740.919	303.890	168.361	94.401	87.421	111.098
151.517	526.600	3224.434	2216.064	7590.501	298.082	175.506	94.579	87.854	111.544
152.516	529.600	3238.011	2256.515	7488.241	304.387	169.571	95.700	87.548	110.283
153.535	532.900	3206.870	2271.187	7440.364	301.253	170.284	95.190	87.256	110.729
154.534	535.900	3220.779	2303.818	7392.603	300.285	167.521	94.910	86.861	110.640
155.595	538.800	3221.721	2301.551	7422.979	302.896	171.851	95.025	87.510	109.073
156.596	541.800	3213.430	2314.402	7390.552	297.967	171.877	95.407	87.536	110.856
157.597	544.800	3217.531	2317.904	7467.251	301.330	170.272	95.025	87.319	110.614
158.596	548.100	3231.184	2330.182	7385.699	298.146	173.188	94.477	87.230	109.493
159.594	551.000	3455.078	2336.143	7371.524	302.094	170.743	95.432	87.408	108.984
160.613	554.000	3165.795	2372.990	7374.695	298.872	169.979	95.598	87.561	108.767
161.612	557.000	3121.918	2359.374	7383.012	302.361	170.577	95.420	87.498	108.156
162.607	559.900	3062.554	2350.663	7335.123	300.706	167.495	95.254	87.014	109.519
163.597	562.900	3092.281	2419.376	7375.077	298.821	172.004	94.655	87.803	108.818
164.599	565.800	3051.091	2402.831	7429.322	297.114	171.991	94.897	87.421	109.239
165.611	568.800	2992.070	2387.547	7240.453	296.388	174.207	95.445	87.536	108.462
166.602	571.800	3033.196	2403.022	7392.450	293.573	174.182	95.814	87.166	109.086
167.601	574.800	2977.156	2430.151	7403.059	297.216	176.997	95.547	87.498	108.602
168.692	578.000	2913.015	2423.388	7446.032	293.943	175.099	94.668	87.816	107.889
169.691	581.000	2938.603	2447.205	7404.919	295.000	174.780	95.547	87.625	107.226
170.699	584.300	2892.267	2439.678	7478.204	297.585	174.016	96.107	87.523	107.226
171.699	587.300	2904.864	2444.772	7445.675	295.840	173.010	95.165	87.319	108.844
172.698	590.300	2890.535	2467.048	7433.792	296.745	175.150	95.216	86.772	108.844
173.700	593.200	2871.673	2470.844	7504.301	295.127	176.627	94.821	87.472	109.124
174.700	596.200	2879.900	2497.794	7460.182	298.782	176.831	94.655	86.428	106.819
175.700	599.200	2872.488	2512.556	7464.716	297.840	174.245	95.152	87.396	109.391
176.698	602.100	2918.530	2564.024	7577.396	291.192	176.041	95.432	87.154	107.481
177.700	605.100	2920.389	2538.895	7485.566	293.115	174.589	94.388	86.797	106.730
178.701	608.100	2926.185	2524.260	7483.108	293.943	174.105	95.152	88.096	105.838
179.699	611.000	2916.161	2604.105	7505.027	296.872	177.098	95.853	87.281	106.220
180.697	614.300	2888.077	2593.521	7495.182	296.350	178.589	95.343	87.548	106.080
181.696	617.300	2952.192	2608.423	7513.803	297.929	174.806	94.821	88.211	107.901
182.696	620.300	2931.177	2620.866	7514.872	296.350	175.608	95.330	87.370	106.755
183.698	623.300	2953.415	2629.744	7544.650	296.159	176.564	94.834	87.663	106.475
184.695	626.200	2917.345	2653.319	7469.976	291.357	178.563	94.464	87.498	106.577
185.693	629.200	2953.568	2657.153	7485.120	299.903	178.194	94.834	86.899	106.870
186.719	632.200	2931.636	2656.146	7598.551	295.968	175.990	95.763	87.256	106.653
187.715	635.100	2887.899	2668.526	7409.657	292.567	176.322	95.929	87.943	105.774
188.710	638.100	2931.037	2683.517	7529.965	297.089	178.831	95.101	88.440	108.105
189.707	641.000	2925.484	2701.717	7568.225	295.191	180.321	94.694	86.822	107.570
190.702	644.000	2951.263	2714.428	7557.998	295.000	178.958	95.572	88.287	106.488
191.702	647.300	2941.328	2748.740	7616.102	295.458	178.652	94.286	87.039	107.163
192.743	650.300	2871.507	2739.022	7583.942	301.266	178.805	94.655	87.790	105.698
193.732	653.300	2848.339	2771.526	7515.942	302.298	182.129	95.496	88.071	107.405
194.720	656.200	2878.550	2765.998	7696.520	303.495	183.021	96.464	88.020	107.252
195.751	659.200	2877.009	2799.011	7786.070	301.967	179.735	95.471	87.459	107.341
196.749	662.200	2885.288	2802.233	7709.664	303.113	180.588	95.725	87.778	108.411
197.753	665.500	2908.277	2818.167	7767.041	300.069	181.467	95.127	86.988	106.449
198.753	668.400	2890.395	2827.133	7762.635	301.151	182.168	95.904	87.103	107.303
199.750	671.400	2879.531	2829.146	7756.368	301.572	183.772	95.101	86.886	108.182
200.769	674.300	2915.002	2867.317	7785.560	305.011	182.282	95.483	87.994	107.023
201.785	677.300	2872.462	2851.689	7768.213	300.655	182.308	94.120	87.650	109.060
202.787	680.300	2869.839	2882.142	7730.883	298.057	186.804	94.859	88.542	108.041
203.818	683.600	2866.782	2896.521	7743.657	303.495	183.709	95.216	87.192	108.029
204.819	686.500	2846.352	2899.795	7760.202	302.094	186.027	96.107	87.931	108.156
205.816	689.500	2849.295	2921.854	7687.744	303.775	187.300	94.554	86.797	109.583
206.858	692.500	2755.223	2947.085	7724.973	300.540	187.631	94.579	87.230	109.264
207.886	695.700	2817.262	2986.466	7735.353	309.239	186.511	95.267	87.192	110.958
208.887	698.700	2824.025	3032.852	7658.221	306.794	188.396	94.719	87.612	111.378
209.892	701.700	2845.677	3015.200	7664.984	305.762	189.224	94.859	86.975	110.512
210.892	704.600	2795.216	3024.051	7626.775	307.876	186.052	95.967	86.848	110.920
211.894	707.600	2769.221	3046.646	7572.390	312.054	188.905	95.420	87.459	111.990
212.894	710.600	2759.796	3054.530	7659.622	312.041	187.695	94.961	86.619	113.862
213.897	713.600	2731.686	3091.351	7671.289	315.633	187.912	94.757	87.663	112.843
214.893	716.500	2683.186	3110.443	7645.790	315.251	190.217	95.471	87.345	114.754
215.890	719.500	2686.230	3107.450	7619.783	223.625	187.823	95.827	87.701	114.448
216.955	722.800	2675.697	3138.208	7655.203	320.078	187.963	95.687	86.886	114.728
217.945	725.800	2600.628	3104.036	7544.026	323.797	190.281	96.413	87.561	117.326
218.929	728.700	2588.032	3148.639	7520.222	322.167	192.484	94.604	87.306	117.657
219.925	731.700	2547.950	3140.450	7531.774	322.765	191.491	95.674	87.370	117.645
220.924	734.600	2562.241	3171.807	7571.193	328.955	190.153	96.184	87.459	118.778
221.921	737.600	2583.765	3185.651	7520.731	329.210	196.407	97.050	87.625	121.555
222.920	740.600	2604.920	3242.596	7547.287	333.578	192.408	96.031	88.300	122.485
223.922	743.900	2587.064	3222.855	7494.290	332.980	192.968	96.031	88.122	119.746
224.914	746.900	2551.185	3183.881	7564.774	334.101	192.319	96.107	87.727	122.026
225.911	749.800	2552.739	3238.037	7575.498	337.539	194.089	96.197	87.587	124.471
226.909	752.800	2532.183	3267.139	7561.577	342.481	194.369	96.362	87.268	123.542
227.909	755.700	2557.159	3233.184	7584.299	340.150	194.917	95.649	87.727	125.771
228.907	758.700	2555.274	3265.636	7580.745	347.512	195.554	95.853	87.332	127.248
229.908	761.700	2525.712	3313.334	7483.592	345.500	196.776	95.203	88.236	129.197
230.907	764.600	2587.013	3262.032	7520.897	351.473	193.694	95.993	87.587	130.203
231.904	767.600	2549.313	3271.304	7565.347	354.759	195.681	95.929	87.803	130.801
232.901	770.600	2575.690	3302.572	7577.256	358.937	197.782	96.579	88.096	131.336
233.902	773.500	2585.841	3310.265	7541.581	356.479	198.050	95.038	87.689	133.833
234.902	776.500	2587.013	3343.864	7571.741	364.948	199.374	96.324	87.510	133.807
235.904	779.500	2595.024	3331.840	7611.542	362.656	201.361	95.865	87.306	132.992
236.906	782.800	2566.214	3340.450	7609.721	368.935	198.012	97.012	87.701	134.024
237.902	785.700	2596.311	3362.433	7560.533	373.915	199.515	97.903	88.313	135.501
238.902	788.700	2600.641	3371.820	7619.184	373.214	202.533	96.540	87.243	136.928
239.937	791.700	2584.988	3391.536	7713.294	377.506	199.158	97.203	88.147	137.743
240.936	794.600	2559.209	3409.062	7605.441	375.711	202.011	96.617	87.752	139.067
241.937	797.600	2570.787	3391.765	7628.851	382.244	202.151	97.699	87.829	138.571
242.938	800.600	2583.701	3397.662	7615.694	382.932	204.571	97.024	87.510	140.965
243.942	803.900	2593.037	3413.889	7659.189	382.983	203.730	97.534	88.644	139.386
