Tue, Oct 10, 2017	12:57 PM
 Notes: GUA_ 1.92e-09_30s_0.05L_101017
 waiting time: 50.000
 time(s)	 temp (K)	 MS1=1.994	 MS2=17.798	 MS3=27.907	 MS4=30.937	 MS5=30.937	 MS6=42.078	 MS7=44.109	 MS8=125.586
0.000	97.800	2160.215	1306.121	4391.475	1513.623	363.165	173.074	824.709	345.283
1.051	97.800	1396.486	1104.694	4390.902	1506.656	352.836	173.392	820.608	345.016
1.999	97.800	1393.315	1107.203	4421.584	1525.621	355.396	174.156	819.703	346.786
2.956	97.800	1370.949	1099.166	4432.270	1523.647	356.211	173.201	815.882	349.766
3.913	97.800	1385.405	1112.667	4420.055	1532.193	357.778	172.068	822.493	345.258
4.871	97.800	1381.457	1111.623	4468.734	1532.843	357.039	173.494	828.097	350.747
5.832	97.800	1366.938	1116.539	4427.786	1550.075	359.561	174.793	825.702	347.512
6.788	97.800	1372.325	1110.094	4470.848	1531.034	354.453	174.589	833.548	350.938
7.747	97.800	1387.099	1116.692	4453.667	1549.897	360.936	174.335	829.472	349.206
8.707	97.800	1382.616	1113.240	4426.029	1518.705	356.593	172.959	832.656	354.186
9.665	97.800	1383.355	1122.359	4418.132	1522.399	354.619	172.844	835.535	352.365
10.626	97.800	1391.022	1114.807	4454.342	1536.460	358.555	173.188	831.663	354.033
11.582	97.800	1376.719	1116.297	4408.096	1517.775	353.460	172.666	834.656	351.893
12.576	97.900	1364.237	1111.508	4451.005	1527.531	356.682	171.915	843.801	353.715
13.535	98.000	1369.727	1120.666	4764.092	1633.550	370.196	174.386	865.338	364.770
14.496	98.500	1367.281	1124.843	5440.958	1860.335	411.959	182.295	927.823	382.576
15.453	99.500	1374.401	1120.029	5782.550	1959.857	426.058	183.785	964.784	398.751
16.428	101.200	1359.461	1129.696	5576.894	1871.810	407.399	179.608	906.922	376.997
17.382	103.300	1355.882	1109.305	5907.189	2031.742	440.195	185.848	928.638	378.207
18.339	106.500	1381.725	1127.505	6198.764	2134.194	452.193	190.179	901.255	377.061
19.311	110.300	1387.469	1132.141	6145.207	2086.700	450.525	187.339	908.387	373.036
20.268	114.500	1409.261	1144.610	5993.529	2037.142	439.406	186.804	906.171	376.526
21.224	118.300	1429.652	1149.654	5725.083	1984.808	430.859	184.180	910.807	376.004
22.184	122.500	1425.436	1155.385	5641.952	1927.660	423.027	183.734	912.565	379.786
23.140	126.600	1446.031	1171.102	5638.679	1930.462	421.333	184.562	924.932	381.850
24.101	130.200	1432.148	1160.875	5593.146	1875.338	413.232	183.505	924.168	384.919
25.064	134.100	1409.643	1167.829	5479.537	1896.799	415.346	184.868	931.797	383.875
26.019	137.900	1436.975	1193.556	5550.555	1867.760	408.787	182.932	929.071	381.850
26.977	141.700	1417.820	1160.072	5339.589	1832.557	403.986	181.085	902.146	375.953
27.941	144.900	1402.727	1197.734	5364.883	1859.048	410.226	182.435	922.053	375.061
28.902	148.600	1410.050	1212.151	5363.381	1815.210	405.743	180.868	915.507	382.550
29.860	152.100	1408.433	1215.463	5387.096	1822.635	405.030	182.422	926.944	380.258
30.820	155.600	1426.990	1211.808	5307.417	1825.959	404.317	181.671	921.671	382.346
31.782	158.600	1404.243	1205.019	5309.798	1807.237	400.088	182.269	936.471	385.900
32.748	162.000	1428.837	1219.640	5261.693	1796.754	399.706	183.250	936.764	390.408
33.708	165.300	1411.872	1209.808	5166.895	1769.333	400.228	183.199	951.564	389.784
34.665	168.500	1419.514	1210.343	5217.828	1774.466	404.406	184.575	956.786	401.285
35.625	171.400	1419.361	1219.271	5118.701	1748.139	398.127	185.670	960.479	400.152
36.579	174.500	1414.559	1215.412	5145.473	1744.713	393.694	184.664	958.620	415.690
37.539	177.700	1412.840	1219.080	5132.583	1758.532	400.789	187.122	958.187	428.771
38.496	180.400	1407.490	1221.092	5188.509	1780.032	408.749	191.121	967.497	468.521
39.456	183.500	1412.203	1231.753	5197.845	1811.822	423.409	200.100	993.403	548.621
40.414	186.600	1443.840	1246.616	5340.977	1811.580	440.705	216.913	1011.183	697.472
41.372	189.700	1491.984	1278.063	5442.423	1891.093	482.404	247.302	1042.668	956.849
42.333	192.400	1588.845	1356.290	5673.972	2048.325	563.395	295.471	1073.044	1406.701
43.322	195.400	1626.990	1446.655	6039.368	2227.616	672.750	364.171	1122.996	1989.839
44.281	198.400	1940.829	1599.225	6384.143	2401.812	757.689	409.500	1151.704	2237.245
45.236	201.400	2091.782	1687.081	6462.714	2401.214	746.278	385.721	1100.555	1634.683
46.195	204.100	1830.340	1567.817	5858.204	2099.016	562.300	263.286	896.046	687.779
47.156	207.100	1495.856	1377.458	5115.797	1778.019	456.358	222.466	912.972	617.143
48.114	210.100	1541.554	1391.150	5137.054	1778.732	454.053	221.065	918.767	614.099
49.068	212.800	1612.802	1411.948	5148.708	1808.434	458.294	219.778	931.860	622.849
50.026	215.800	1728.067	1447.164	5248.205	1826.137	456.867	221.459	942.368	633.764
50.984	218.700	1790.603	1470.880	5283.052	1839.613	461.287	224.656	960.900	648.245
51.941	221.700	1886.865	1496.773	5302.386	1835.804	465.579	225.815	969.764	665.936
52.900	224.400	1969.372	1531.441	5276.250	1844.733	465.541	226.248	964.988	660.319
53.862	227.300	2006.677	1545.974	5267.972	1847.764	470.024	227.497	975.979	644.119
54.819	230.300	2026.737	1552.151	5234.220	1863.748	463.541	221.663	969.662	610.647
55.773	232.900	2043.434	1539.949	5179.874	1795.570	441.940	214.225	971.369	565.764
56.732	235.900	1979.650	1507.013	5084.924	1778.783	432.502	205.361	971.585	524.409
57.690	238.900	1944.816	1503.969	5009.027	1749.349	420.225	200.253	972.846	498.439
58.645	241.800	1912.707	1486.444	5034.793	1707.039	416.480	195.897	975.776	484.926
59.622	244.500	1860.908	1472.192	5033.748	1694.162	409.080	194.560	993.250	474.660
60.598	247.500	1852.464	1463.391	5036.016	1727.366	409.781	193.185	1005.439	471.234
61.558	250.400	1844.389	1460.843	5039.977	1743.185	408.851	192.917	1015.055	471.565
62.519	253.400	1832.811	1464.193	5086.286	1742.981	408.953	190.357	1010.954	466.509
63.483	256.400	1795.876	1438.338	5070.888	1754.342	415.958	192.344	1012.571	460.867
64.457	259.000	1777.522	1442.452	5137.614	1750.929	410.023	189.708	1019.704	467.324
65.419	262.000	1779.637	1440.809	5114.179	1756.991	413.219	193.337	1038.286	463.618
66.378	264.900	1804.473	1440.312	5129.399	1756.698	417.550	191.796	1046.399	477.921
67.329	267.600	1812.764	1447.037	5082.504	1757.654	411.678	190.497	1051.456	472.011
68.284	270.500	1809.096	1440.236	5103.060	1756.380	413.461	190.497	1059.416	469.413
69.244	273.500	1832.378	1441.178	5056.203	1743.440	407.437	189.797	1074.521	474.138
70.205	276.500	1864.156	1453.278	5052.216	1734.486	408.418	191.427	1083.539	476.456
71.165	279.100	1877.414	1463.200	5082.402	1750.457	412.099	189.988	1096.301	480.583
72.125	282.100	1901.830	1468.027	5084.287	1734.562	405.297	189.020	1100.071	488.403
73.083	285.100	1909.956	1448.222	4506.625	1575.089	370.769	170.921	772.031	369.049
74.044	288.100	1577.102	1233.867	4026.359	1401.186	349.232	174.755	911.444	411.029
75.005	290.700	1756.826	1360.811	4507.491	1517.839	365.407	178.461	990.474	371.520
76.001	293.700	1953.145	1446.680	4811.421	1629.143	390.523	185.097	1058.537	465.910
76.963	296.600	1930.793	1472.051	4970.741	1701.231	397.490	185.581	1091.728	478.481
77.921	299.600	2009.313	1485.425	5091.343	1717.508	401.795	186.485	1112.960	487.002
78.885	302.600	2060.794	1516.272	5075.129	1733.671	410.991	189.415	1141.553	497.382
79.843	305.200	2130.806	1545.757	5094.170	1782.795	418.811	192.191	1152.277	501.190
80.802	308.200	2196.768	1566.314	5133.564	1750.126	409.220	188.829	1166.619	506.221
81.762	311.100	2338.487	1614.369	5114.536	1756.482	414.659	190.204	1188.385	512.309
82.721	313.800	2492.649	1658.220	5155.433	1778.987	422.453	192.790	1203.223	519.849
83.680	316.700	2644.556	1713.445	4841.555	1427.092	347.920	173.953	954.175	428.541
84.642	319.700	2498.342	1591.800	4515.974	1556.023	379.188	181.098	1042.400	460.344
85.602	322.700	2833.884	1743.885	4856.979	1644.274	392.879	183.989	1130.702	494.096
86.565	325.300	3084.460	1849.101	5015.090	1706.135	406.316	188.408	1164.594	507.100
87.525	328.300	3270.782	1933.824	5119.630	1759.590	414.378	189.822	1179.062	509.214
88.484	331.200	3375.960	1961.462	5217.357	1761.691	412.366	190.051	1180.145	505.826
89.443	334.200	3426.854	1980.822	5195.973	1789.762	419.613	190.421	1196.613	516.105
90.398	336.800	3395.561	1964.723	5241.493	1778.376	417.079	189.669	1200.065	516.754
91.355	339.800	3290.714	1934.232	5292.489	1791.443	415.079	188.561	1215.374	512.564
92.317	342.800	3158.319	1883.171	5309.862	1797.812	419.600	190.484	1211.553	507.749
93.277	345.400	2967.654	1841.931	5287.892	1811.631	418.352	189.224	1219.144	510.934
94.240	348.400	2832.648	1792.399	5297.520	1822.877	425.294	191.363	1234.262	509.889
95.199	351.400	2709.843	1738.664	5367.214	1817.056	420.033	189.899	1229.982	512.984
96.158	354.300	2598.323	1707.612	5328.967	1817.617	423.829	191.363	1241.776	511.239
97.118	357.000	2526.413	1687.616	5311.900	1803.148	424.275	191.019	1229.307	514.423
98.074	360.000	2481.453	1671.428	5353.624	1824.545	421.307	189.593	1232.861	509.520
99.038	362.900	2482.039	1663.544	5318.497	1811.911	422.008	190.917	1203.771	501.763
99.995	365.600	2492.139	1684.839	5343.270	1822.367	422.683	190.217	1201.491	493.688
100.953	368.500	2598.501	1714.108	5318.217	1834.225	426.262	189.860	1196.893	494.771
101.913	371.500	2742.372	1777.777	5288.745	1819.222	424.389	190.688	1188.232	493.778
102.872	374.500	2906.991	1839.371	5321.083	1830.188	430.452	190.981	1179.877	494.440
103.826	377.100	3110.863	1902.684	5331.590	1805.886	422.555	189.491	1184.653	494.809
104.787	380.100	3264.656	1946.242	5358.057	1843.918	429.942	189.758	1186.780	491.077
105.746	383.100	3397.650	1987.381	5423.675	1828.710	422.670	190.421	1172.299	488.212
106.704	385.700	3544.603	2042.835	5460.432	1849.063	425.306	190.905	1196.129	487.906
107.667	388.700	3634.115	2047.255	5576.920	1898.914	434.145	190.599	1187.570	490.492
108.628	391.600	3614.106	2065.978	5699.202	1926.704	435.916	191.325	1179.903	492.771
109.586	394.600	3629.759	2059.431	5798.203	1983.305	448.589	193.872	1187.494	497.904
110.539	397.200	3618.283	2079.122	5996.255	2031.347	452.817	195.566	1184.055	490.186
111.499	400.200	3636.509	2069.455	6357.129	2144.077	470.304	196.522	1173.764	487.244
112.459	403.200	3493.173	2035.881	6630.759	2250.134	489.613	200.342	1162.123	479.462
113.416	405.800	3435.477	1986.782	6948.470	2374.824	510.246	204.979	1158.123	478.328
114.375	408.800	3318.569	1974.619	7346.051	2467.812	528.930	207.335	1122.563	467.413
115.323	411.700	3164.484	1901.779	7467.506	2502.035	521.734	205.679	1140.980	470.495
116.282	414.700	3013.251	1858.832	7766.481	2668.794	547.449	209.602	1158.072	472.126
117.242	417.300	2897.451	1813.325	8001.392	2693.617	557.345	210.353	1164.899	477.169
118.200	420.300	2766.724	1767.410	8085.465	2794.897	580.678	214.454	1159.346	479.908
119.159	423.200	2635.704	1714.770	8224.445	2759.834	573.011	214.900	1165.128	483.525
120.118	425.800	2546.460	1690.367	8278.155	2837.208	578.691	214.544	1147.718	471.310
121.083	428.800	2412.116	1665.391	8402.934	2849.282	579.889	215.002	1134.294	471.107
122.038	431.800	2385.624	1650.922	8450.670	2839.449	579.825	214.238	1126.499	471.960
123.000	434.700	2324.986	1638.504	8544.780	2900.763	587.696	216.530	1105.318	459.733
123.960	437.400	2291.056	1616.254	8590.720	2886.472	581.863	214.060	1107.369	463.197
124.920	440.300	2253.242	1599.645	8663.675	2937.609	595.325	216.798	1106.719	460.675
125.879	443.300	2229.131	1596.818	8687.441	2970.138	598.140	217.206	1097.511	456.816
126.835	446.000	2211.224	1588.463	8788.441	2985.740	597.389	215.371	1122.703	463.044
127.793	449.000	2176.517	1583.750	8830.318	2953.759	592.396	214.849	1115.202	459.924
128.757	451.900	2162.074	1572.236	8813.748	2985.447	604.750	218.263	1120.564	467.617
129.713	454.900	2164.621	1582.629	8860.504	2955.453	597.873	217.333	1120.831	467.286
130.669	457.500	2168.761	1583.916	8838.240	3021.428	612.188	218.657	1122.487	463.159
131.629	460.500	1646.413	1196.435	7557.106	2605.608	537.298	203.883	992.359	421.893
132.588	463.500	2067.812	1515.699	8244.709	2784.186	567.063	209.385	1041.572	437.202
133.549	466.100	2105.078	1550.393	8549.136	2853.803	581.392	211.245	1071.592	445.685
134.508	469.100	2105.652	1512.719	8683.238	2936.654	584.194	213.856	1072.687	444.093
135.476	472.100	2099.118	1576.121	8853.613	3003.762	608.342	217.435	1067.198	447.315
136.431	475.000	2114.516	1574.809	8748.780	2991.344	594.421	216.709	1074.700	448.831
137.389	477.700	2149.210	1580.872	8860.096	2951.670	604.075	216.709	1079.463	452.804
138.352	480.700	2132.793	1584.578	8765.770	2930.005	597.580	215.512	1080.202	448.792
139.312	483.600	2164.086	1595.557	8613.429	2932.120	600.980	217.944	1083.322	456.880
140.271	486.600	2204.130	1600.295	8536.017	2858.554	583.417	214.429	1098.975	454.893
141.232	489.200	2219.324	1616.254	8342.640	2847.486	573.622	213.283	1112.145	454.473
142.192	492.200	2251.357	1627.551	8171.895	2783.447	570.718	212.811	1090.799	452.868
143.153	495.200	2267.392	1635.804	7995.329	2656.070	545.462	208.952	1069.401	450.474
144.111	497.800	2264.029	1638.453	7684.993	2644.365	550.850	209.143	1077.502	458.052
145.069	500.800	2281.402	1642.924	7485.260	2525.916	522.243	205.144	1086.073	447.035
146.025	503.700	2272.843	1653.151	7285.884	2469.723	519.874	205.004	1071.146	448.194
146.983	506.700	2275.288	1654.603	7075.274	2359.514	498.910	201.145	1062.027	447.837
147.944	509.300	2267.010	1638.237	6767.319	2310.428	494.529	201.298	1064.358	441.647
148.902	512.300	2255.407	1649.139	6532.294	2215.172	472.113	195.070	1059.161	442.883
149.870	515.300	2249.663	1638.772	6422.454	2168.493	470.151	197.349	1049.214	444.309
150.828	518.200	2271.773	1663.977	6234.172	2130.360	459.058	193.821	1063.008	439.482
151.789	520.900	2244.020	1648.757	6107.495	2062.857	449.709	192.471	1067.363	445.659
152.749	523.800	2307.945	1672.217	6001.668	2006.065	445.838	192.917	1061.110	440.819
153.704	526.800	2313.154	1670.829	5923.733	2011.466	447.557	192.930	1072.802	446.411
154.662	529.400	2307.180	1668.588	5815.219	1980.949	439.393	190.892	1071.184	446.449
155.624	532.400	2300.723	1671.733	5724.089	1984.044	440.909	191.643	1070.204	444.640
156.583	535.400	2298.048	1676.331	5715.008	1936.435	437.291	191.809	1060.791	447.047
157.544	538.300	2252.910	1665.913	5644.703	1943.313	435.597	190.255	1055.213	440.552
158.505	541.000	2220.725	1660.143	5609.054	1915.802	429.751	189.300	1049.074	440.170
159.487	543.900	2193.520	1654.832	5618.250	1909.790	426.975	188.638	1053.735	439.011
160.451	546.900	2190.502	1648.617	5610.722	1893.755	429.357	190.663	1047.469	440.233
161.407	549.900	2170.837	1643.293	5556.694	1900.900	424.173	189.071	1041.827	434.438
162.367	552.500	2139.811	1638.046	5548.467	1867.671	425.536	189.313	1047.495	446.181
163.328	555.500	2112.096	1632.021	5542.646	1877.363	422.377	189.631	1042.375	442.806
164.289	558.500	2092.839	1628.837	5501.418	1870.218	420.976	189.071	1053.201	444.029
165.245	561.400	2061.978	1628.226	5482.059	1885.757	428.962	190.828	1065.071	448.143
166.198	564.100	2051.662	1618.966	5460.241	1851.012	421.842	189.376	1070.013	447.098
167.156	567.000	2039.868	1618.686	5451.173	1854.807	422.543	189.160	1064.472	444.551
168.115	570.000	2022.495	1617.438	5428.005	1857.291	417.524	187.288	1059.505	444.144
169.077	572.600	2004.601	1613.324	5453.618	1839.231	420.365	187.530	1069.401	444.819
170.033	575.600	2003.543	1621.055	5416.899	1832.467	421.855	188.714	1043.101	449.837
170.989	578.600	1970.964	1620.839	5459.706	1862.271	425.778	189.555	1046.667	436.578
171.949	581.500	1940.524	1601.836	5447.849	1832.213	415.079	188.294	1039.343	438.629
172.909	584.200	1935.938	1603.211	5417.905	1865.315	419.562	188.892	1049.825	437.444
173.870	587.100	1951.821	1614.356	5419.879	1854.540	425.994	190.523	1041.598	441.125
174.830	590.100	1930.513	1613.235	5427.598	1856.909	430.108	191.771	1036.478	434.629
175.781	592.700	1938.065	1627.143	5404.506	1861.545	426.465	189.631	1065.275	440.208
176.737	595.700	2011.657	1634.683	5389.070	1851.407	425.981	190.383	1061.428	448.372
177.696	598.700	2010.880	1647.980	5454.943	1831.792	422.071	190.867	1075.910	445.188
178.656	601.600	1995.647	1644.809	5389.414	1857.023	418.174	187.873	1067.160	439.546
179.618	604.300	2015.528	1652.068	5408.047	1831.792	421.231	188.994	1046.068	437.279
180.590	607.300	2004.830	1671.160	5395.489	1819.731	422.224	191.401	1060.167	439.864
181.547	610.200	2034.098	1669.861	5421.344	1824.418	416.480	187.746	1046.145	440.768
182.509	613.200	2021.795	1671.199	5414.594	1824.316	422.810	191.949	1053.022	439.457
183.467	615.800	2018.127	1679.337	5458.929	1857.138	419.868	189.045	1054.551	439.202
184.429	618.800	2031.105	1680.178	5465.361	1843.918	420.148	189.300	1044.603	443.902
185.395	621.800	1999.022	1684.330	5506.615	1850.235	419.919	190.701	1045.520	444.564
186.351	624.400	2016.649	1686.813	5486.809	1874.803	422.326	190.192	1042.553	440.781
187.307	627.400	2044.300	1701.448	5468.851	1881.910	430.579	191.771	1055.862	436.795
188.264	630.300	2047.726	1720.310	5478.543	1842.708	418.390	189.287	1056.066	443.838
189.228	633.300	2065.302	1710.694	5445.989	1849.764	422.288	190.497	1075.031	445.646
190.186	635.900	2104.136	1726.780	5486.962	1863.264	424.733	190.892	1066.115	444.182
191.147	638.900	2100.124	1724.513	5479.932	1850.770	421.600	190.306	1063.122	445.646
192.108	641.900	2100.188	1744.127	5477.550	1866.983	427.000	192.064	1072.051	447.748
193.067	644.900	2120.719	1748.305	5543.321	1866.130	426.083	190.905	1062.880	446.334
194.027	647.500	2085.197	1740.994	5516.091	1874.294	427.586	191.503	1056.843	441.966
194.985	650.400	2074.562	1741.478	5497.903	1889.883	431.012	191.873	1055.697	440.985
195.942	653.400	2103.665	1755.259	5522.663	1900.977	434.222	191.898	1060.320	440.959
196.901	656.100	2113.777	1757.488	5557.599	1875.670	422.644	190.561	1051.723	439.928
197.862	659.100	2112.720	1761.462	5622.147	1880.484	429.178	191.656	1049.494	442.552
198.822	662.000	2115.077	1758.825	5577.760	1915.955	429.751	192.510	1062.549	441.354
199.783	665.000	2125.075	1777.637	5640.780	1887.400	425.880	191.860	1059.034	446.525
200.743	667.600	2148.306	1787.699	5600.877	1896.226	426.402	191.172	1068.102	443.036
201.702	670.600	2160.762	1805.555	5588.434	1889.399	425.829	190.612	1066.370	448.015
202.663	673.600	2133.506	1796.385	5580.129	1879.809	424.568	191.784	1073.095	449.073
203.623	676.600	2110.046	1809.351	5557.408	1892.609	430.108	191.554	1084.176	455.262
204.578	679.200	2124.985	1800.805	5613.856	1908.198	429.560	190.688	1083.373	450.028
205.540	682.100	2127.482	1807.759	5597.935	1899.321	438.132	193.044	1062.715	444.602
206.498	685.100	2090.215	1813.465	5654.001	1893.501	429.993	191.503	1060.753	441.443
207.457	687.700	2077.377	1807.364	5618.492	1914.605	433.496	193.032	1051.710	442.169
208.437	690.700	2055.648	1791.966	5620.491	1907.103	431.713	193.490	1064.421	446.194
209.399	693.600	2034.582	1797.824	5631.534	1899.920	430.592	191.542	1061.390	444.513
210.360	696.600	1995.698	1790.450	5603.972	1919.419	432.490	192.981	1074.840	448.436
211.321	699.500	1975.663	1779.446	5599.820	1879.873	429.420	190.917	1067.491	443.392
212.281	702.200	1926.246	1769.053	5600.380	1891.157	431.547	191.351	1066.026	450.767
213.242	705.100	1905.829	1759.831	5570.845	1918.273	434.935	192.701	1086.455	448.971
214.205	708.100	1880.560	1760.519	5562.668	1892.392	428.338	191.223	1080.864	448.550
215.168	710.700	1827.870	1752.317	5582.040	1876.637	427.370	193.057	1088.633	459.733
216.127	713.700	1794.717	1745.478	5554.886	1890.584	429.331	192.127	1067.185	446.869
217.085	716.700	1759.067	1733.760	5597.349	1872.014	426.147	192.127	1090.862	460.879
218.047	719.700	1715.738	1671.020	5467.425	1855.788	422.988	190.612	1047.240	443.392
219.007	722.300	1673.326	1712.070	5520.637	1888.801	427.319	191.720	1056.894	448.028
219.966	725.300	1630.786	1709.752	5615.855	1873.721	422.721	189.504	1065.135	451.327
220.927	728.200	1607.593	1707.956	5620.033	1898.468	432.350	191.465	1071.325	443.800
221.887	731.200	1591.112	1710.325	5632.349	1888.673	428.261	190.574	1067.198	447.404
222.847	733.800	1547.821	1705.791	5672.163	1823.335	418.085	190.981	1073.057	446.130
223.809	736.800	1545.681	1687.654	5595.872	1906.683	432.885	193.236	1078.941	453.569
224.767	739.700	1550.495	1707.892	5582.116	1875.873	389.835	185.721	1092.454	452.894
225.736	742.700	1562.926	1702.696	5576.703	1877.325	429.025	192.306	1088.735	459.249
226.695	745.400	1550.393	1703.218	5523.987	1879.134	424.109	191.351	1087.283	451.301
227.655	748.300	1525.608	1715.114	5590.535	1873.046	427.230	191.784	1084.494	458.319
228.614	751.300	1524.678	1708.771	5807.118	1917.483	437.368	194.012	1088.939	458.994
229.575	753.900	1522.182	1722.972	5531.336	1883.235	424.237	192.408	1074.827	451.110
230.535	756.900	1529.964	1718.680	5573.532	1867.786	425.739	192.344	1085.729	457.440
231.515	759.900	1487.730	1712.707	5536.354	1862.653	422.250	190.968	1078.737	449.404
232.470	762.800	1499.422	1722.042	5599.412	1888.890	431.292	192.892	1070.127	455.110
233.431	765.800	1492.315	1721.074	5595.477	1896.672	433.483	192.790	1075.145	449.684
234.391	768.400	1484.762	1725.761	5622.873	1920.222	433.700	193.121	1075.426	453.186
235.351	771.400	1492.926	1724.118	5643.468	1923.202	436.120	194.102	1059.620	451.964
236.321	774.400	1480.827	1741.173	5712.181	1908.466	432.935	193.783	1081.743	456.281
237.283	777.300	1497.371	1755.934	5726.267	1931.404	437.661	193.197	1098.453	463.401
238.246	780.000	1511.942	1752.865	5708.233	1937.569	436.069	194.942	1115.023	461.465
239.209	782.900	1522.450	1767.932	5703.113	1939.161	434.795	193.770	1110.515	463.618
240.171	785.900	1501.638	1767.002	5703.635	1918.540	433.254	194.025	1111.342	468.750
241.130	788.500	1496.162	1771.345	5650.065	1922.400	439.266	194.445	1114.412	467.668
242.090	791.500	1494.939	1763.105	5693.191	1919.712	435.012	193.872	1094.518	461.860
243.048	794.500	1487.386	1767.996	5674.889	1933.047	439.113	196.305	1095.002	460.459
244.007	797.400	1497.690	1771.804	5733.782	1918.515	431.598	194.586	1093.384	463.961
244.968	800.000	1476.624	1785.585	5725.007	1961.322	444.386	197.502	1094.339	460.637
245.925	803.000	1477.146	1776.618	5713.455	1924.603	432.923	193.656	1097.778	463.363
