Fri, Sep 15, 2017	3:35 PM
 Notes: HOAc_mass ratios_91517 
 waiting time: 25.000
 time(s)	 temp (K)	 MS1=1.879	 MS2=13.642	 MS3=17.577	 MS4=26.774	 MS5=27.740	 MS6=30.759	 MS7=43.788	 MS8=60.088
0.000	108.700	6009.131	1174.795	1761.041	544.137	9823.901	768.592	4250.419	380.856
0.868	108.600	4521.450	1126.397	1721.278	546.672	9322.289	730.077	4218.437	380.385
1.653	108.500	4405.510	1112.094	1768.378	543.730	9551.813	732.089	4171.975	374.055
2.448	108.400	4398.136	1094.569	1753.349	540.673	9325.486	745.424	4133.524	372.947
3.223	108.400	4546.083	1075.642	1760.978	539.157	9446.584	722.117	4049.043	368.502
3.998	108.300	4445.643	1057.225	1731.824	538.113	9267.879	718.308	4045.018	365.037
4.790	108.200	4554.298	1065.466	1728.487	543.526	9291.862	698.745	3959.569	363.025
5.584	108.100	4440.969	1044.565	1709.968	530.968	9339.025	745.004	3929.142	357.612
6.361	108.100	4438.358	1040.986	1717.394	537.731	9050.633	725.199	3896.677	357.956
7.125	108.000	4347.852	1014.571	1714.477	540.278	9182.112	719.225	3834.905	353.677
7.878	108.000	4556.030	1024.085	1690.278	540.431	9006.120	690.225	3930.568	349.907
8.636	107.900	4376.293	1001.389	1706.058	530.802	9021.034	735.974	3875.216	348.557
9.390	107.800	4316.635	1002.904	1702.505	528.917	8976.049	710.221	3870.096	365.483
10.186	107.800	4439.657	996.192	1659.952	526.013	9134.847	720.512	3814.934	348.786
10.975	107.700	4397.053	963.905	1664.448	530.025	8929.484	688.887	3826.868	349.283
11.764	107.600	4553.062	971.394	1664.066	524.027	9135.955	714.717	3806.897	350.760
12.526	107.500	4370.460	967.586	1659.914	520.537	8978.061	689.155	3752.525	341.284
13.323	107.500	4327.602	953.041	1680.203	530.853	8748.856	704.362	3731.243	349.435
14.129	107.400	4329.474	958.747	1650.171	526.497	8999.407	714.386	3732.809	334.623
14.904	107.400	4449.145	953.818	1676.370	525.593	8852.900	701.853	3740.031	339.807
15.660	107.300	4335.434	953.678	1682.075	524.523	8807.495	701.738	3640.024	348.620
16.414	107.200	4259.665	933.019	1671.071	524.090	8581.117	668.012	3648.736	345.525
17.173	107.200	4375.427	931.262	1670.001	521.021	8920.887	695.561	3602.452	348.404
17.927	107.100	4393.640	929.568	1645.560	517.939	8812.220	666.063	3602.426	332.241
18.681	107.100	4295.913	924.715	1660.576	528.281	8915.130	673.591	3589.919	334.368
19.456	107.000	4400.887	925.301	1653.877	530.115	8685.683	688.658	3592.263	325.669
20.217	107.000	4447.210	916.182	1656.208	524.141	8677.863	698.019	3543.673	330.713
20.972	106.900	4287.558	912.106	1639.994	520.320	8575.895	664.395	3600.376	339.743
21.726	106.900	4416.617	918.462	1681.197	521.543	8891.976	675.297	3559.899	331.350
22.526	106.800	4378.254	922.881	1639.599	523.504	8651.664	681.806	3640.954	339.998
23.310	106.700	4469.613	918.729	1671.593	523.186	8625.262	666.522	3560.065	333.324
24.069	106.700	4286.756	903.929	1695.551	526.459	8675.800	680.608	3489.416	331.490
24.822	106.700	4335.727	892.594	1676.688	525.428	8590.988	641.240	3458.874	331.515
25.583	106.600	4380.279	884.595	1660.462	517.123	8776.048	670.623	3514.405	332.458
26.393	106.600	4442.586	897.714	1679.770	523.759	8638.214	674.775	3554.512	345.398
27.179	106.500	4513.044	900.682	1702.976	529.325	8854.492	684.213	3491.734	283.932
27.941	106.500	4320.571	915.354	1751.196	528.917	8695.898	682.786	3534.834	369.202
28.728	106.400	4535.066	934.471	1841.039	539.833	8780.965	685.945	3504.317	388.778
29.482	106.400	4363.849	944.138	1926.475	541.437	8593.739	688.174	3516.863	409.883
30.249	106.300	4390.392	974.591	2004.129	554.352	8852.378	717.060	3556.435	438.590
30.999	106.200	4479.993	994.753	2096.596	559.421	8633.311	694.708	3594.275	448.079
31.752	106.200	4573.797	1025.919	2128.615	555.014	8930.771	695.052	3540.196	446.487
32.542	106.200	4425.787	1014.724	2160.036	559.740	8625.656	674.278	3505.298	449.850
33.313	106.100	4572.485	1024.735	2159.196	564.134	8644.876	696.937	3556.282	449.799
34.110	106.100	4573.581	1029.040	2106.976	563.624	8763.401	688.722	3570.127	458.090
34.906	106.000	4632.665	1031.701	2147.376	554.772	8536.348	675.285	3586.506	456.676
35.662	106.000	4525.908	1041.649	2135.519	561.867	8871.661	683.067	3583.156	467.642
36.452	105.900	4559.099	1046.004	2189.585	561.153	8593.319	692.313	3557.059	470.215
37.207	105.900	4619.814	1046.094	2188.337	564.783	8730.974	678.953	3546.233	460.943
37.983	105.900	4477.802	1057.378	2171.856	561.523	8668.578	690.785	3583.271	468.215
38.740	105.800	4635.900	1069.299	2192.667	564.911	8822.001	711.036	3552.958	465.719
39.492	105.800	4537.944	1058.817	2205.760	561.484	8649.346	663.924	3523.715	477.921
40.244	105.800	4552.706	1056.703	2079.644	564.809	8782.697	683.818	3598.835	475.475
41.054	105.700	4549.152	1064.982	2188.973	571.011	8732.337	693.281	3616.640	465.261
41.856	105.700	4641.873	1086.774	2184.477	566.070	8627.732	701.560	3588.314	386.142
42.651	105.600	4467.944	1067.313	2217.337	566.439	8756.905	655.187	3601.649	481.652
43.436	105.600	4567.658	1078.712	2209.428	565.127	8560.841	670.992	3648.940	491.905
44.224	105.600	4441.032	1075.005	2137.454	572.336	8787.256	725.020	3577.043	480.914
45.008	105.500	4532.009	1088.366	2183.586	568.056	8693.491	708.590	3571.668	482.022
45.790	105.500	4575.071	1091.652	2233.704	569.050	8777.105	692.683	3622.270	489.536
46.549	105.400	4515.986	1080.558	2212.892	564.694	8743.201	722.830	3640.610	488.785
47.313	105.400	4629.455	1089.092	2197.239	566.617	8631.681	333.171	3578.877	489.944
48.091	105.400	4569.441	1091.983	2246.504	573.992	8818.817	701.968	3662.555	498.388
48.850	105.300	4571.683	1109.687	2243.664	573.699	8566.406	681.538	3597.357	506.336
49.657	105.300	4570.511	1099.599	2286.687	570.375	8745.914	702.311	3623.174	513.201
50.411	105.300	4660.188	1117.380	2303.538	574.170	8628.356	706.374	3717.118	517.506
51.167	105.200	4529.411	1127.747	2328.450	581.430	8869.177	717.595	3686.245	522.294
51.971	105.200	4534.645	1143.897	2317.930	577.201	8485.657	710.692	3711.781	522.447
52.753	105.200	4662.838	1153.080	2357.311	585.518	8719.830	716.296	3643.145	523.033
53.507	105.100	4591.284	1146.635	2329.775	578.564	8650.951	718.448	3702.013	535.744
54.266	105.100	4611.892	1149.182	2364.265	593.160	8858.160	762.848	3735.140	524.587
55.059	105.100	4605.116	1166.759	2389.496	580.003	8893.797	703.840	3737.955	531.707
55.839	105.000	4668.696	1148.813	2331.813	577.889	8598.591	681.424	3702.879	541.768
56.598	105.000	4602.390	1145.604	2373.792	583.773	8788.186	707.381	3680.870	538.508
57.369	105.000	4504.664	1162.900	2374.913	587.734	8548.703	727.721	3758.384	553.817
58.121	104.900	4364.486	1166.071	2400.067	582.971	8843.590	701.968	3716.061	551.970
58.878	104.900	4591.832	1169.523	2410.830	587.085	8726.644	680.558	3722.174	558.186
59.668	104.900	4551.674	1177.419	2421.579	591.339	8711.615	706.820	3632.535	550.557
60.427	104.800	4542.020	1174.311	2432.010	592.612	8737.712	694.631	3736.847	564.745
61.184	104.800	4514.394	1169.714	2400.284	598.611	8870.196	710.386	3788.149	559.307
61.941	104.800	4651.706	1196.957	2453.675	602.228	8686.218	724.384	3850.138	566.413
62.703	104.800	4654.330	1199.390	2469.354	603.082	8862.631	743.909	3850.672	563.815
63.459	104.800	4569.174	1199.975	2463.482	607.247	8600.183	704.298	3888.538	566.541
64.219	104.700	4540.924	1206.254	2510.925	525.377	8850.658	734.726	3850.380	572.463
64.985	104.700	4453.259	1205.745	2529.202	614.328	8736.718	716.767	3951.443	584.079
65.742	104.600	4607.141	1234.389	2556.586	615.360	9067.255	715.583	3976.318	578.500
66.500	104.600	4506.943	1218.825	2541.467	615.946	8901.655	713.290	4082.960	601.744
67.281	104.600	4675.128	1239.153	2556.662	627.243	9076.730	725.746	4113.438	594.166
68.041	104.600	4617.610	1250.959	2606.245	633.904	9121.219	729.758	4158.729	596.612
68.793	104.500	4592.099	1270.433	2603.379	641.075	9142.871	748.341	4217.915	609.552
69.539	104.500	4585.387	1280.164	2635.106	655.798	9170.713	744.405	4343.828	605.960
70.298	104.500	4727.208	1287.679	2685.300	647.494	9096.013	713.558	4404.058	619.155
71.058	104.500	4549.916	1289.258	2701.896	664.510	9223.009	738.610	4516.012	619.945
71.835	104.400	4513.019	1295.741	2717.587	679.067	9167.732	710.959	4513.312	630.338
72.593	104.400	4565.493	1329.199	2750.332	689.460	9449.908	772.808	4607.167	634.452
73.344	104.400	4635.849	1339.745	2795.636	694.988	9311.705	736.878	4631.493	644.386
74.156	104.300	4593.959	1361.295	2815.225	710.565	9490.461	764.223	4791.145	658.243
74.914	104.300	4654.495	1374.592	2930.413	727.058	9445.081	740.215	4932.659	673.884
75.666	104.300	4618.349	1399.798	2917.460	733.541	9450.634	765.217	5104.716	675.654
76.418	104.300	4668.378	1418.775	3024.841	752.684	9521.105	773.686	5275.308	708.973
77.200	104.300	4651.515	1442.617	3084.193	765.573	9777.668	838.655	5321.860	699.153
77.981	104.200	4572.523	1477.184	3144.092	788.677	9624.525	803.057	5621.446	712.348
78.760	104.200	4663.857	1495.716	3182.200	800.853	9992.634	825.626	5705.163	730.230
79.514	104.200	4701.760	1530.066	3245.793	816.188	9824.844	800.853	5989.008	748.659
80.273	104.200	4657.870	1524.386	3322.556	820.862	10103.925	796.943	6190.052	764.351
81.026	104.200	4534.760	1573.485	3450.404	832.707	9927.678	794.358	6475.464	801.758
81.782	104.100	4697.417	1587.546	3519.729	874.495	10355.215	824.709	6761.129	804.305
82.539	104.100	4609.790	1611.770	3603.955	884.264	10335.970	822.391	6987.927	828.237
83.298	104.100	4815.382	1628.926	3667.089	897.638	10562.756	834.261	7206.230	833.242
84.056	104.100	4635.403	1619.145	3740.400	899.332	10382.650	829.001	7419.655	836.706
84.812	104.000	4611.038	1634.989	3793.384	920.843	10493.125	821.945	7620.317	857.620
85.604	104.000	4751.356	1595.124	3814.896	917.392	10577.377	821.474	7632.519	840.769
86.363	104.000	4815.395	1604.434	3797.434	907.738	10501.251	827.753	7604.053	865.402
87.116	104.000	4640.956	1548.636	3821.531	894.428	10484.363	852.805	7744.090	862.918
87.870	104.000	4642.141	1550.852	3822.194	899.013	10300.257	818.926	7587.661	863.453
88.624	104.000	4641.275	1513.712	3798.440	877.947	10475.333	811.310	7448.656	859.224
89.412	103.900	4631.264	1511.509	3774.445	873.171	10126.698	805.362	7368.989	843.775
90.172	103.900	4602.607	1485.679	3623.403	867.707	10323.680	806.916	7089.602	826.619
90.929	103.900	4610.516	1456.144	3598.312	834.376	10033.811	793.186	6944.025	814.953
91.683	103.900	4575.682	1426.608	3558.409	810.457	10007.064	800.586	6639.675	795.555
92.452	103.900	4627.825	1415.018	3533.866	804.993	9852.902	788.945	6495.778	785.022
93.210	103.800	4791.692	1402.867	3438.024	792.727	9910.649	788.321	6237.534	788.843
93.964	103.800	4518.546	1388.284	3391.651	769.700	9788.838	759.715	6048.551	753.550
94.719	103.800	4510.522	1374.605	3327.179	751.894	9895.671	798.510	5836.450	742.699
95.500	103.800	4665.461	1388.233	3258.759	741.782	9572.204	770.337	5762.796	741.896
96.263	103.800	4706.307	1355.729	3248.226	747.768	9708.879	802.025	5473.665	716.130
97.014	103.800	4520.266	1369.345	3220.435	729.262	9347.380	768.668	5466.367	707.814
97.769	103.700	4757.431	1369.854	3163.783	728.727	9422.283	769.534	5315.517	716.678
98.527	103.700	4616.706	1357.729	3190.542	724.473	9197.166	762.147	5161.712	703.216
99.282	103.700	4605.282	1339.885	3166.738	711.456	9481.571	759.065	5040.970	696.580
100.040	103.700	4609.688	1360.404	3091.364	709.062	9196.160	765.930	5026.692	695.688
100.797	103.700	4594.634	1338.191	3127.153	704.235	9134.363	746.813	4880.134	697.102
101.552	103.700	4643.962	1347.897	3022.918	695.255	9175.718	767.331	4886.897	688.900
102.333	103.700	4723.654	1345.120	3063.967	696.007	9063.892	739.515	4766.003	676.698
103.090	103.700	4663.551	1352.329	3055.332	692.912	9412.756	750.022	4654.686	676.788
103.866	103.600	4626.169	1357.933	3055.727	695.650	9039.413	751.652	4700.015	685.894
104.626	103.600	4547.573	1343.108	2997.076	693.307	9435.465	752.391	4606.568	677.106
105.386	103.600	4656.609	1354.379	3008.628	685.423	9155.454	748.112	4636.651	683.945
106.144	103.600	4479.598	1343.604	3400.719	689.333	9311.336	734.305	4607.294	675.921
106.912	103.600	4664.430	1367.434	3038.227	687.130	9171.299	744.495	4627.125	680.277
107.672	103.500	4622.030	1351.221	3022.065	689.881	9340.591	758.543	4650.279	682.035
108.444	103.500	4468.900	1337.160	3031.298	691.142	9067.675	749.857	4732.137	701.331
109.197	103.500	4732.213	1358.481	3038.813	690.454	9495.683	759.753	4685.317	689.358
109.950	103.500	4585.260	1355.258	3028.382	687.193	9171.541	767.713	4737.257	696.083
110.700	103.500	4615.687	1355.513	3069.788	695.765	9455.729	782.335	4872.314	697.930
111.457	103.500	4591.883	1364.696	3109.411	701.789	9164.459	762.669	4950.108	712.131
112.214	103.500	4612.771	1351.781	3144.334	705.979	9373.006	770.884	4967.812	707.151
112.969	103.500	4604.365	1380.782	3094.917	705.113	9262.797	733.325	4979.797	676.304
113.727	103.500	4694.157	1379.712	3141.851	707.304	9533.192	773.801	5004.429	714.768
114.523	103.400	4659.972	1372.338	3131.381	714.487	9319.551	756.390	5075.804	723.874
115.286	103.400	4792.418	1377.267	3144.105	708.005	9430.638	781.532	4871.779	721.696
116.045	103.400	4492.653	1370.682	3122.122	711.596	9417.927	776.871	4926.138	716.869
116.798	103.400	4741.472	1387.532	3133.139	712.004	9460.250	764.427	4861.985	706.858
117.550	103.400	4655.527	1370.376	3168.585	713.035	9345.202	780.208	4888.719	704.426
118.305	103.400	4618.795	1381.151	3176.163	701.012	9208.858	746.647	4759.584	710.425
119.059	103.400	4626.067	1382.591	3179.793	708.731	9345.915	770.133	4778.548	707.266
119.818	103.400	4695.061	1398.881	3151.327	709.775	9210.934	756.913	4758.972	725.415
120.573	103.400	4586.419	1383.266	3132.923	698.911	9361.925	754.263	4742.224	709.011
121.338	103.300	4728.519	1404.485	3174.711	702.248	9197.447	738.114	4733.627	715.303
122.124	103.300	4612.847	1387.711	3154.027	715.417	9459.601	780.564	4680.860	713.290
122.885	103.300	4783.337	1418.889	3147.595	700.452	9233.096	764.007	4637.785	710.526
123.680	103.300	4771.276	1391.684	3143.940	699.573	9506.968	782.105	4547.624	703.394
124.431	103.300	4679.981	1419.998	3153.326	702.935	9035.171	764.070	4688.744	723.849
125.186	103.300	4780.803	1414.126	3173.972	699.891	9451.093	751.041	4535.779	708.489
125.940	103.200	4553.839	1398.498	3139.113	699.115	9172.903	745.182	4605.345	728.548
126.696	103.200	4793.654	1423.475	3178.175	711.265	9349.596	760.670	4517.107	705.585
127.453	103.200	4617.687	1412.483	3157.810	697.624	9199.828	754.276	4553.291	711.150
128.213	103.200	4586.954	1417.794	3185.206	709.265	9443.629	763.459	4545.064	710.883
128.971	103.200	4625.138	1429.728	3188.810	698.185	9138.566	739.604	4567.098	719.849
129.760	103.200	4684.846	1403.160	3184.760	706.349	9312.533	747.691	4475.421	714.042
130.514	103.200	4540.147	1447.712	3217.174	711.634	9270.961	742.801	4502.053	722.168
131.272	103.200	4786.228	1430.378	3166.802	706.132	9435.656	755.588	4539.842	729.758
132.029	103.200	4563.506	1421.488	3217.251	712.883	9225.237	766.949	4499.518	722.384
132.783	103.200	4836.066	1453.902	3244.265	713.558	9414.577	779.201	4589.004	724.893
133.542	103.200	4575.682	1423.271	3261.981	710.794	9188.544	721.123	4626.653	732.611
134.298	103.200	4652.623	1437.013	3295.465	720.550	9248.583	755.117	4600.773	731.236
135.059	103.100	4738.772	1445.776	3266.490	709.418	9343.941	768.579	4656.189	732.026
135.816	103.100	4664.723	1450.922	3316.671	727.237	9305.681	751.500	4603.053	736.165
136.578	103.100	4713.401	1455.418	3304.292	713.507	9483.545	773.712	4670.288	730.905
137.342	103.100	4795.411	1473.847	3826.346	736.127	9285.990	745.450	4653.196	745.717
138.109	103.100	4632.601	1454.437	3306.075	716.640	9409.878	783.366	4687.928	742.686
138.870	103.100	4760.730	1490.175	3321.932	726.842	9198.911	743.221	4691.966	747.882
139.628	103.100	4602.034	1455.609	3401.967	730.688	9544.336	773.088	4652.037	766.159
140.380	103.100	4872.747	1504.911	3300.751	728.740	9357.747	762.389	4752.986	770.872
141.132	103.000	4634.155	1462.690	3314.761	720.907	9600.288	794.612	4693.214	738.356
141.886	103.000	4780.166	1471.911	3297.134	729.924	9343.177	760.262	4691.737	728.778
142.644	103.000	4660.137	1439.637	3274.514	730.956	9582.469	772.311	4708.867	722.422
143.401	103.000	4726.291	1438.109	3269.903	709.877	9286.971	743.781	4750.452	702.044
144.158	103.000	4645.465	1421.513	3251.423	715.545	9414.972	774.935	4727.844	617.818
144.928	103.000	4570.575	1427.716	3223.874	711.087	9303.554	761.345	4698.270	688.289
145.678	103.000	4594.749	1407.923	3244.035	716.054	9382.622	790.104	4725.170	689.460
146.462	103.000	4593.640	1409.006	3284.690	723.492	9298.714	777.979	4847.949	681.487
147.244	103.000	4691.507	1399.021	3224.383	725.059	9595.129	784.856	4791.246	677.819
148.000	103.000	4611.739	1379.890	3231.681	721.531	9131.433	777.253	4783.273	678.609
148.754	103.000	4692.577	1380.871	3255.753	723.798	9409.496	762.109	4783.592	665.936
149.507	103.000	4472.606	1372.542	3266.910	717.939	9118.200	746.532	4718.611	661.478
150.263	103.000	4757.457	1363.537	3270.973	730.523	9333.268	756.250	4704.830	657.696
151.059	102.900	4628.729	1375.165	3258.453	724.167	9383.157	759.422	4790.890	660.956
151.818	102.900	4679.624	1361.486	3279.736	724.142	9169.414	742.801	4741.281	652.041
152.573	102.900	4559.265	1346.687	3256.606	726.460	9369.720	815.437	4753.164	647.685
153.324	102.900	4512.547	1341.286	3273.877	725.887	9190.327	744.036	4751.534	641.024
154.074	102.900	4510.573	1333.186	3276.233	717.544	9313.985	763.523	4851.630	654.168
154.832	102.900	4613.331	1335.708	3318.289	737.642	9240.789	739.795	4839.607	644.857
155.608	102.900	4589.259	1330.320	3296.815	730.383	9335.637	757.409	4863.118	646.908
156.365	102.900	4690.106	1346.394	3327.765	741.043	9132.045	749.347	4933.092	654.919
157.120	102.900	4416.375	1324.296	3295.401	737.566	9541.267	762.669	4862.010	626.338
157.889	102.900	4652.381	1328.372	3268.311	737.005	9198.274	747.424	4852.509	640.998
158.651	102.900	4575.045	1297.346	3300.700	738.126	9329.498	749.755	4845.567	633.051
159.406	102.900	4404.415	1310.209	3355.288	729.593	9126.275	736.776	4871.104	631.420
160.161	102.900	4442.026	1299.129	3366.420	745.730	9382.902	763.854	4792.673	633.305
160.919	102.900	4597.716	1310.591	3370.203	739.349	9169.197	720.397	4770.499	620.352
161.674	102.900	4437.581	1289.296	3289.428	732.573	9394.021	744.584	4764.271	628.389
162.425	102.900	4511.949	1287.628	3328.198	739.999	9174.941	732.586	4789.145	623.728
163.178	102.900	4530.417	1289.118	3352.652	752.264	9442.267	769.280	4815.433	615.130
163.933	102.900	4502.830	1280.164	3324.517	736.802	9168.789	759.154	4797.946	620.824
164.682	102.900	4679.038	1289.016	3384.124	742.304	9538.605	746.303	4744.427	603.515
165.441	102.900	4517.935	1265.670	3392.390	738.317	9169.465	723.212	4713.057	610.927
166.199	102.800	4684.974	1298.250	3394.720	742.317	9344.578	775.266	4535.397	600.127
166.954	102.800	4422.246	1261.633	3401.662	739.922	9122.200	768.732	4609.752	594.434
167.704	102.800	4495.341	1267.402	3369.146	736.458	9353.570	763.803	4520.597	583.926
168.512	102.800	4516.330	1262.448	3371.260	731.440	9012.641	739.655	4490.654	589.568
169.265	102.800	4559.660	1272.318	3364.662	747.933	9345.240	759.727	4432.181	581.162
170.022	102.800	4409.484	1263.658	3309.182	728.969	9076.234	735.159	4430.601	578.933
170.774	102.800	4515.974	1263.225	3389.040	734.216	9074.463	736.534	4408.758	572.030
171.528	102.700	4546.923	1249.011	3373.603	590.396	9302.038	739.349	4384.839	573.304
172.307	102.700	4533.575	1257.480	3391.956	734.178	9125.766	734.611	4345.738	574.157
173.069	102.700	4526.341	1278.967	3421.161	733.809	9172.025	738.699	4333.766	563.382
173.878	102.700	4526.825	1252.985	3408.285	740.954	9005.546	744.125	4256.328	567.496
174.694	102.700	4599.410	1246.209	3366.267	742.495	9137.878	751.296	4304.447	561.726
175.452	102.700	4541.128	1256.347	3386.836	732.242	8984.977	727.835	4219.520	560.033
176.211	102.700	4546.821	1249.125	3359.848	742.533	9183.704	750.493	4214.464	557.918
176.969	102.700	4452.113	1243.929	3430.956	747.029	8986.595	740.266	4103.491	557.498
177.758	102.700	4544.822	1243.954	3437.464	732.446	9187.117	745.641	4144.604	556.313
178.516	102.700	4385.705	1242.401	3416.372	734.140	9006.833	718.130	4055.271	551.958
179.273	102.700	4494.793	1225.372	3442.380	740.304	9180.367	723.250	4172.535	552.047
180.033	102.700	4466.747	1232.428	3466.235	738.496	8984.315	712.883	4156.207	550.238
180.791	102.700	4600.276	1228.773	3439.413	737.553	8881.825	736.802	4094.970	550.900
181.559	102.700	4495.926	1232.224	3463.459	741.654	8993.447	767.891	4092.601	553.779
182.309	102.700	4359.710	1223.602	3403.598	754.429	8935.891	743.310	4028.957	549.207
183.096	102.700	4360.984	1227.104	3473.572	736.267	9177.285	745.412	4067.523	541.781
183.848	102.700	4448.165	1230.759	3467.420	767.305	8875.100	727.339	4106.420	541.819
184.601	102.700	4310.509	1227.639	3549.939	742.571	9069.853	739.374	4123.054	545.691
185.359	102.700	4607.230	1232.033	3543.431	752.646	8915.907	712.602	4128.225	548.264
186.162	102.700	4471.523	1225.104	3495.886	740.521	9167.580	732.306	4054.137	535.655
186.946	102.600	4468.632	1228.683	3534.044	747.411	8971.667	736.216	4060.696	538.279
187.743	102.600	4643.211	1215.501	3533.051	750.863	9113.794	742.750	4051.997	541.030
188.545	102.600	4379.452	1219.933	3515.131	748.952	8845.742	745.819	4018.564	550.608
189.299	102.600	4566.206	1223.245	3623.123	755.996	8935.139	723.441	4037.096	540.546
190.068	102.600	4412.222	1225.792	3586.811	749.436	8991.536	730.421	4060.111	531.592
190.882	102.600	4495.009	1231.141	3538.056	751.780	8881.863	740.100	4061.894	537.846
191.667	102.600	4564.283	1211.693	3592.505	755.410	9118.710	724.511	3966.065	533.006
192.454	102.600	4493.086	1206.204	3598.682	756.747	8933.751	715.787	3961.480	533.617
193.216	102.600	4482.515	1215.055	3561.440	764.516	9216.640	757.779	3940.286	533.401
193.999	102.600	4539.587	1228.085	3634.064	763.077	8910.010	720.041	4023.149	526.370
194.788	102.600	4611.051	1216.291	3645.718	753.792	9037.528	715.150	4036.090	528.344
195.596	102.600	4543.866	1204.064	3554.626	770.120	9235.758	760.250	3987.003	528.866
196.347	102.600	4531.436	1204.739	3673.916	769.853	8801.228	737.018	3989.920	528.102
197.102	102.600	4507.937	1217.768	3684.207	764.631	9043.285	723.225	3961.110	526.345
197.859	102.600	4558.526	1210.878	3737.293	771.509	8904.381	734.433	4043.540	531.923
198.617	102.600	4527.475	1202.204	3672.655	768.299	9096.001	730.293	4008.401	527.427
199.398	102.600	4491.214	1209.260	3734.121	770.057	8997.994	703.381	3927.779	535.629
200.154	102.600	4507.326	1210.941	3693.224	773.088	9047.271	752.659	3954.615	524.600
200.906	102.600	4518.763	1196.078	3733.994	774.069	8969.553	708.017	4022.436	523.976
201.660	102.600	4499.696	1221.360	3783.386	773.992	9090.626	748.277	3964.001	520.371
202.422	102.600	4583.655	1202.676	3758.652	771.126	8948.691	709.469	3990.748	522.600
203.175	102.600	4438.460	1210.623	3785.233	785.315	9180.545	747.131	3943.967	525.377
203.945	102.600	4493.799	1206.267	3823.073	787.544	9034.445	727.912	3976.840	521.951
204.698	102.600	4550.795	1206.624	3797.765	789.390	9105.922	757.346	4011.266	528.484
205.450	102.500	4366.422	1207.719	3809.738	791.326	8945.583	722.486	3976.445	521.912
206.207	102.500	4477.510	1197.963	3858.493	790.053	8993.319	732.968	3987.704	531.541
206.961	102.500	4393.589	1215.094	3896.282	789.543	8961.784	714.067	3962.970	530.675
207.719	102.500	4552.234	1209.642	3825.951	787.811	9041.158	757.244	3856.811	513.137
208.487	102.500	4553.546	1205.821	3895.619	787.391	8916.226	725.250	3969.898	525.096
209.249	102.500	4576.663	1203.720	3931.727	807.706	9270.375	723.148	3924.658	523.046
210.007	102.500	4398.913	1209.693	3948.030	793.428	8781.945	747.793	3999.651	523.746
210.774	102.500	4517.018	1210.445	3993.779	807.807	8971.094	738.623	4012.069	527.274
211.532	102.500	4525.590	1212.444	3987.857	794.651	8863.535	722.027	4022.704	519.925
212.294	102.500	4523.794	1204.217	4033.517	809.387	9220.818	726.014	3909.706	524.765
213.082	102.500	4480.961	1205.172	3998.785	799.452	9004.808	736.012	3926.327	528.344
213.889	102.500	4554.157	1218.953	3993.423	808.941	8907.578	733.503	4040.344	532.955
214.676	102.500	4600.200	1207.706	4033.530	811.743	9126.313	739.311	4000.733	524.014
215.478	102.500	4515.910	1237.230	3934.096	807.043	8957.594	736.369	3982.622	524.905
216.271	102.500	4481.356	1197.403	4026.219	808.470	9000.681	735.655	3922.137	533.413
217.073	102.500	4450.597	1199.007	4042.967	808.661	9035.859	769.038	4027.467	529.491
217.826	102.500	4497.569	1204.535	4122.748	817.640	8852.059	724.345	3968.688	524.765
218.610	102.400	4459.742	1203.987	4145.458	811.717	9138.961	728.498	4006.630	525.198
219.368	102.400	4511.006	1202.586	4116.138	825.040	8956.842	715.455	3916.010	529.516
220.125	102.400	4465.486	1198.396	4123.780	830.720	9160.676	736.942	3978.954	520.091
220.883	102.400	4571.785	1215.399	4172.000	828.975	8933.636	746.723	3911.311	521.568
221.634	102.400	4463.818	1200.294	4168.995	820.378	9029.173	745.628	3959.314	519.887
222.384	102.400	4417.814	1204.968	4157.353	822.684	8765.617	718.003	3936.911	522.562
223.186	102.400	4608.427	1207.579	4230.754	830.899	9180.418	730.548	3945.635	514.767
223.949	102.400	4585.196	1221.755	4165.683	829.803	8944.845	731.274	4001.013	533.961
224.709	102.400	4551.432	1210.661	4272.682	842.259	8972.139	791.148	3940.261	527.746
225.466	102.400	4526.316	1212.190	4319.081	842.578	8922.186	715.888	3926.773	531.006
226.225	102.400	4537.218	1216.087	4250.941	841.623	9230.166	734.522	3960.079	526.039
226.984	102.400	4552.897	1192.843	4159.404	838.413	8976.469	728.740	3976.509	541.030
227.760	102.400	4498.117	1219.679	4388.686	846.972	9190.633	739.387	3985.182	524.549
228.514	102.400	4587.603	1209.681	4342.669	847.558	9033.350	737.120	3918.621	534.381
229.275	102.400	4602.225	1219.539	4407.676	857.581	9238.496	722.575	3952.233	522.868
230.037	102.400	4374.357	1218.087	4939.384	851.850	8955.721	747.462	4006.847	522.804
230.800	102.400	4665.105	1218.048	4260.913	842.145	9126.479	724.549	3977.043	526.765
231.559	102.400	4572.536	1228.620	4376.777	852.767	9159.084	742.864	4019.252	523.441
232.321	102.400	4516.763	1210.279	4435.097	858.575	9056.951	738.496	3962.728	541.845
233.074	102.400	4526.940	1228.403	4476.312	858.791	9162.485	746.991	3900.217	525.453
233.828	102.400	4617.572	1205.452	4465.996	856.015	9018.092	720.881	3948.017	523.899
234.580	102.400	4452.049	1217.679	4504.269	860.091	9155.009	769.229	4003.905	520.906
235.336	102.400	4615.522	1220.532	4518.164	866.663	8877.252	722.843	4004.172	534.585
236.089	102.400	4453.081	1225.805	4552.081	862.893	9068.464	739.209	3998.148	520.944
236.848	102.400	4520.571	1225.958	4585.056	871.248	9046.392	718.525	3902.370	540.457
237.597	102.400	4508.306	1230.263	4556.004	865.707	9234.102	742.915	4006.159	528.153
238.354	102.400	4622.310	1224.901	4602.136	881.692	9057.371	745.679	3989.640	532.802
239.113	102.400	4603.842	1206.917	4615.598	882.252	9153.085	733.770	3964.116	521.479
239.872	102.400	4536.861	1230.568	4661.895	892.874	9119.130	728.128	3964.333	537.706
240.630	102.400	4503.874	1223.003	4574.115	884.061	9212.386	750.659	4014.145	534.649
241.384	102.400	4578.624	1234.848	4686.145	892.135	9007.368	746.571	3920.443	533.120
242.135	102.300	4375.427	1213.718	4685.776	888.849	9222.690	775.597	3997.613	530.662
242.889	102.300	4527.067	1230.938	4774.498	897.676	8999.790	746.774	4094.181	525.631
243.649	102.300	4492.347	1222.863	4684.770	892.148	9172.216	748.468	4054.800	541.297
244.403	102.300	4532.302	1233.116	4794.163	899.663	9107.196	776.425	4038.000	536.406
245.163	102.300	4575.134	1223.678	4809.549	897.765	9138.107	761.128	4046.661	530.599
245.925	102.300	4698.691	1233.740	4828.526	907.865	9100.993	726.192	4075.560	535.935
246.686	102.300	4658.354	1225.588	5895.637	918.869	9080.488	759.969	4026.385	529.605
247.460	102.300	4540.045	1229.040	4863.882	918.398	8867.076	734.560	4066.657	540.469
248.214	102.300	4532.009	1226.174	4886.082	904.528	9159.250	754.786	4002.083	543.399
249.008	102.300	4622.922	1229.893	4861.628	913.163	8858.479	738.075	3995.359	539.540
249.766	102.300	4597.296	1236.414	4942.925	919.952	9256.760	769.700	4049.718	536.305
250.521	102.300	4715.299	1228.339	4890.527	914.475	9073.674	728.306	4002.937	536.012
251.282	102.300	4636.002	1239.407	4953.955	930.905	9225.110	738.445	3990.162	537.183
252.036	102.300	4587.871	1238.987	4935.181	934.484	9156.932	792.791	4076.209	536.279
252.790	102.300	4661.080	1235.981	4963.838	925.250	9226.779	744.966	4058.328	535.719
253.551	102.200	4608.950	1241.305	4993.794	937.783	9188.620	765.077	4059.907	538.202
254.304	102.200	4512.560	1238.873	4977.988	944.699	9394.594	765.026	4041.184	541.208
255.057	102.200	4620.145	1236.631	5003.168	931.415	9244.890	768.719	4043.732	532.535
255.807	102.200	4682.044	1254.971	5092.476	947.437	9037.935	749.767	4100.995	549.487
256.562	102.200	4688.489	1253.609	5132.647	944.100	9245.399	787.989	4124.430	548.404
257.319	102.200	4631.213	1236.147	5099.430	954.964	9207.521	746.469	4036.943	537.667
258.078	102.200	4566.741	1245.674	5101.990	934.917	9441.439	759.192	4077.738	542.214
258.839	102.200	4741.549	1249.597	5136.684	954.009	9048.927	742.024	4585.094	552.289
259.601	102.200	4494.258	1237.217	5192.992	948.176	9434.701	769.216	4072.147	541.985
260.361	102.200	4751.356	1251.787	5171.557	951.233	9223.467	752.276	4081.648	546.545
261.123	102.200	4614.554	1253.035	5186.535	951.564	9059.944	794.574	4087.252	542.838
261.893	102.200	4658.724	1263.721	5177.148	961.192	9115.220	744.405	4017.151	546.494
262.647	102.200	4567.480	1263.008	5241.174	958.620	9426.613	775.189	4109.783	541.819
263.405	102.200	4686.158	1247.075	5268.545	972.693	9140.056	734.471	4037.886	543.157
264.163	102.200	4598.366	1249.355	5251.962	963.969	9381.577	776.476	4038.904	544.851
264.915	102.200	4636.155	1272.344	5312.371	975.559	9216.424	760.759	4061.219	550.251
265.671	102.200	4552.145	1271.542	5368.577	972.961	9312.826	776.514	4059.805	538.572
266.424	102.200	4778.204	1273.197	5310.257	965.408	9242.623	762.084	4137.688	549.678
267.191	102.200	4730.162	1273.439	5367.520	979.049	9391.601	769.394	4094.932	455.135
267.978	102.200	4649.553	1251.240	5411.664	975.483	9225.288	557.014	4624.781	554.734
268.757	102.200	4636.651	1255.787	5508.971	981.673	9318.303	761.740	4065.384	548.850
269.511	102.200	4450.521	1258.843	5484.873	977.712	9161.835	735.503	4106.331	556.734
270.266	102.200	4647.057	1259.964	5527.006	1003.605	9392.454	794.523	4066.351	554.632
271.024	102.200	4521.680	1277.553	5473.767	992.269	9140.018	764.618	4007.152	549.092
271.778	102.200	5151.051	1199.912	5496.451	1005.401	9413.024	725.135	4115.540	551.728
272.544	102.200	4526.952	1274.624	5574.602	1014.838	9320.226	778.959	4088.844	544.927
273.298	102.200	4631.913	1262.728	5461.375	1001.631	9371.898	759.320	4074.414	548.442
274.065	102.200	4466.403	1269.096	5609.754	1013.463	9333.166	777.940	4145.585	542.265
274.826	102.200	4730.876	1269.720	5674.723	1024.289	9280.386	755.461	4128.633	550.595
275.589	102.200	4583.286	1261.556	5698.273	1027.728	9390.365	774.871	4071.726	562.134
276.344	102.200	4669.575	1288.838	5625.280	1004.420	9254.175	778.424	4062.849	556.657
277.099	102.100	4625.087	1270.968	5621.153	1023.155	9540.235	798.268	4166.027	552.225
277.853	102.100	4575.466	1285.870	5777.404	1022.187	9061.268	772.566	4113.082	558.963
278.608	102.100	4597.334	1278.865	5617.345	1029.524	9507.248	762.644	4106.955	559.205
279.364	102.100	4694.704	1289.997	5809.156	1029.574	9194.632	742.253	4145.254	562.975
280.122	102.100	4598.493	1278.521	5885.906	1063.568	9485.660	769.713	4090.895	552.123
280.879	102.100	4528.825	1289.538	5882.212	1044.756	9246.189	777.355	4121.246	556.619
281.636	102.100	4643.274	1292.136	5863.706	1042.706	9536.478	786.079	4138.987	560.682
282.398	102.100	4602.645	1274.968	5753.727	1042.591	9171.133	780.411	4082.629	569.763
283.143	102.100	4510.548	1272.688	5985.352	1058.231	9412.578	766.694	4136.236	559.638
283.896	102.100	4741.332	1296.632	5974.845	1057.302	9310.202	774.183	4083.138	556.543
284.652	102.100	4532.531	1281.934	5903.164	1049.545	9560.257	799.045	4103.988	565.254
285.405	102.100	4697.493	1286.099	6036.935	1058.410	9349.405	770.324	4130.900	567.916
286.163	102.100	4637.772	1284.507	5885.600	1053.175	9557.035	784.831	4148.565	570.553
286.921	102.100	4651.502	1288.990	5955.587	1080.902	9422.805	791.594	4031.033	562.631
287.670	102.100	4554.667	1298.568	6082.697	1064.167	9490.971	796.090	4174.891	568.056
288.427	102.100	4702.015	1294.709	6081.729	1070.650	9319.003	779.278	4229.633	568.388
289.193	102.100	4736.123	1303.650	6164.809	1090.735	9573.363	782.080	4189.971	556.250
289.950	102.100	4643.249	1313.202	6698.912	1043.725	9410.782	767.560	4180.801	559.243
290.720	102.100	4599.194	1299.447	6058.256	1080.151	9591.194	804.305	4116.610	570.349
291.509	102.100	4709.287	1317.851	6195.032	1084.214	9377.871	758.314	4224.895	569.368
292.288	102.100	4711.325	1308.312	6243.571	1100.211	9569.746	766.885	4212.655	575.469
293.046	102.100	4664.417	1308.528	6162.121	1086.252	9528.594	770.095	4184.941	569.992
293.798	102.100	4640.396	1298.785	6902.555	1105.598	9633.148	789.709	4136.580	573.890
294.554	102.100	4511.223	1299.078	6222.772	1090.416	9487.710	809.514	4218.094	570.056
295.311	102.100	4753.674	1313.483	6337.337	1105.407	9415.380	794.039	4163.951	571.495
296.068	102.100	4605.893	1314.896	6323.594	1112.603	9615.864	784.334	4209.102	578.042
296.827	102.100	4686.527	1317.316	6405.884	1118.118	9526.862	769.089	4235.517	568.248
297.585	102.100	4606.657	1310.273	6331.707	1071.885	9497.212	808.597	4258.201	583.149
298.341	102.100	4731.207	1315.673	6421.728	1087.755	9547.151	783.786	4168.179	580.742
299.099	102.100	4549.101	1311.101	6381.418	1111.062	9600.517	802.802	4227.098	565.153
299.850	102.100	4759.838	1325.022	6512.208	1120.207	9412.552	794.854	4235.695	568.056
300.636	102.100	4666.225	1323.048	6463.466	1125.263	9582.801	819.907	4278.006	577.940
301.387	102.100	4701.365	1332.931	6557.499	1133.975	9529.065	799.694	4249.820	586.168
302.144	102.100	4733.729	1318.195	6545.985	1131.950	9560.779	799.720	4273.090	581.634
302.902	102.100	4604.275	1340.318	6432.898	1139.859	9477.534	781.659	4315.999	583.404
303.660	102.100	4784.522	1327.531	6626.836	1130.689	9696.881	808.826	4254.316	574.972
304.422	102.100	4800.035	1335.109	6641.292	1150.902	9629.467	793.160	4298.639	565.713
305.175	102.100	4591.131	1330.702	6686.443	1150.571	9628.091	807.846	4323.055	587.123
305.931	102.100	4722.826	1348.559	6679.654	1164.237	9558.257	782.997	4293.137	587.811
306.694	102.100	4754.069	1255.099	6735.172	1154.048	9638.548	813.946	4309.681	579.850
307.466	102.000	4530.429	1344.063	6794.130	1152.889	9594.760	792.040	4333.333	594.803
308.222	102.000	4769.353	1350.062	6672.764	1176.362	9903.275	416.646	4190.545	596.497
309.000	102.000	4543.102	1349.259	6829.104	1175.827	9559.009	786.104	4320.546	597.974
309.750	102.000	4663.003	1345.680	7516.452	1195.212	9609.560	794.816	4334.072	555.473
310.510	102.000	4590.367	1350.826	6902.173	1180.654	9598.823	787.926	4368.154	584.232
311.268	102.000	4846.459	1320.271	6917.355	1187.697	9819.890	818.850	4321.221	582.181
312.035	102.000	4741.829	1356.914	6898.275	1184.220	9676.401	883.984	4723.005	602.916
312.804	102.000	4694.844	1353.692	7048.871	1191.951	9714.190	821.868	4427.825	599.337
313.559	102.000	4711.605	1356.659	7068.791	1204.917	9624.627	834.860	4430.958	598.726
314.310	102.000	4605.218	1343.974	7056.526	1210.101	9748.782	820.251	4564.818	612.405
315.066	102.000	4710.930	1338.039	7083.553	1212.381	10212.936	860.141	4476.083	620.747
315.825	102.000	4859.552	1376.312	7185.355	1223.360	9846.954	824.887	4476.414	607.170
316.581	102.000	4546.643	1364.709	7554.521	1278.063	10682.173	896.377	4696.984	620.734
317.333	102.000	4714.242	1377.904	7353.986	1244.655	10099.455	842.387	4449.922	605.069
318.089	102.000	4790.941	1390.003	7239.116	1252.017	10535.474	852.245	4511.223	615.169
318.848	102.000	4850.891	1372.987	7308.618	1225.932	9798.581	815.640	4391.691	611.870
319.609	102.000	4762.870	1389.494	7307.816	1248.781	9767.861	826.084	4397.168	606.814
320.367	102.000	4638.014	1395.951	7454.145	1252.704	9766.880	825.384	4363.557	609.475
321.126	102.000	4650.853	1371.166	7357.654	1264.524	9915.464	815.322	4425.507	607.412
321.883	102.000	4830.245	1383.176	7558.902	1256.143	9780.126	825.524	4268.288	612.443
322.681	101.900	4750.006	1397.747	7464.971	1256.996	9878.757	812.927	4461.525	615.423
323.441	101.900	4749.751	1380.298	7463.812	1264.435	9656.035	804.840	4446.980	610.494
324.198	101.900	4687.903	1377.229	7466.423	1259.276	9736.644	816.290	4354.768	611.539
324.946	101.900	4744.835	1401.160	7546.268	1268.128	9689.901	802.611	4404.377	611.424
325.703	101.900	4902.385	1399.530	7504.288	1278.228	9965.951	837.955	4405.345	603.935
326.462	101.900	4734.353	1398.205	7573.460	1265.224	9709.464	806.012	4443.223	447.111
327.233	101.900	4712.013	1402.447	7510.198	1287.424	9951.979	830.109	4377.758	614.404
327.986	101.900	4809.523	1397.454	7533.531	1290.697	9865.855	836.554	4434.333	615.818
328.738	101.900	4739.766	1400.766	7590.820	1287.182	9960.029	848.691	4398.429	608.839
329.492	101.900	4728.227	1387.698	7633.347	1278.687	9580.470	825.053	4449.897	608.851
330.246	101.900	4799.589	1394.550	7635.869	1306.885	9886.119	852.232	4399.270	615.181
331.000	101.900	4649.133	1397.811	7729.647	1291.882	9868.747	850.296	4483.725	612.940
331.759	101.900	4876.632	1403.020	7624.597	1286.914	9838.115	834.579	4279.929	605.922
332.511	101.900	4776.052	1406.153	7687.133	1304.975	9806.809	817.105	4461.067	623.435
333.269	101.900	4815.000	1399.619	7767.309	1283.488	9962.436	840.362	4477.166	612.634
334.026	101.900	4793.488	1420.431	7741.709	1289.296	9790.672	861.071	4482.146	614.022
334.785	101.900	4921.286	1411.248	7843.880	1325.124	9899.658	827.702	4483.050	616.531
335.546	101.900	4709.186	1418.673	7882.930	1311.292	9861.576	832.491	4490.896	629.013
336.306	101.900	4962.908	1423.067	7635.206	1335.084	9845.719	803.273	4436.142	633.675
337.064	101.900	4765.328	1426.022	7737.200	1318.399	10019.622	839.852	4455.705	625.893
337.819	101.900	4829.672	1434.148	7773.995	1335.071	10009.128	857.136	4427.761	621.741
338.570	101.900	4817.089	1414.419	7798.093	1316.246	10033.543	845.278	4541.421	625.536
339.326	101.900	4883.853	1412.521	7858.515	1304.745	9925.538	831.179	4473.472	622.123
340.086	101.900	4818.643	1426.404	7974.454	1331.772	10120.444	855.607	4529.130	625.014
340.845	101.900	4960.960	1426.837	7976.365	1309.878	9839.809	817.029	4507.733	623.982
341.607	101.900	5269.729	1415.540	7888.471	1338.879	10198.162	841.725	4485.954	633.407
342.367	101.900	4902.117	1435.001	7927.279	1335.109	9877.012	837.432	4405.459	623.460
