Fri, Jul 21, 2017	1:18 PM
 Notes: background
 waiting time: 25.000
 time(s)	 temp (K)	 MS1=1.942	 MS2=13.642	 MS3=17.577	 MS4=27.796	 MS5=43.737	 MS6=28.818	 MS7=30.708	 MS8=60.996
0.000	89.500	9238.076	261.350	383.977	1385.940	1000.281	132.279	84.071	80.200
0.755	89.500	9272.617	262.942	386.040	1398.167	968.694	133.081	85.039	80.543
1.506	89.500	9070.630	258.191	376.131	1360.302	975.075	133.540	84.581	80.327
2.257	89.500	9204.617	251.568	377.379	1372.261	953.207	128.802	84.606	80.289
3.013	89.500	9035.999	258.548	374.895	1324.933	953.805	135.055	85.562	80.340
3.769	89.500	9053.716	254.345	381.009	1349.820	947.845	132.355	85.409	80.442
4.525	89.500	8903.438	253.352	371.597	1309.254	940.865	135.081	85.549	81.473
5.297	89.500	8971.425	247.480	373.074	1322.691	913.736	131.247	86.542	81.308
6.057	89.500	8745.570	248.142	376.182	1293.830	916.386	130.967	85.702	80.276
6.815	89.500	8749.047	248.244	364.974	1292.875	920.385	130.445	85.294	81.168
7.591	89.500	8643.335	246.245	377.519	1306.860	930.116	134.686	84.938	81.690
8.350	89.500	9653.615	253.161	405.501	1440.401	1008.063	137.055	85.893	81.040
9.109	89.600	10468.060	267.807	432.974	1505.179	1092.556	140.774	85.167	81.320
9.867	89.700	11597.185	279.245	468.852	1668.830	1146.699	146.607	86.007	81.919
10.624	89.900	12085.602	297.458	493.459	1799.646	1228.709	149.550	87.498	81.817
11.389	90.200	13223.807	326.344	504.260	2000.499	1327.072	154.033	87.370	81.473
12.144	90.800	13302.608	367.292	531.312	2211.848	1398.931	161.114	87.294	81.269
12.900	91.700	14194.210	409.577	535.375	2481.542	1552.508	163.980	86.351	81.728
13.661	92.800	14163.617	458.332	558.058	2724.286	1706.058	170.565	87.281	82.123
14.416	94.400	14291.529	491.727	548.124	2710.888	1827.093	171.176	87.829	81.282
15.197	96.300	14458.797	508.552	564.478	2648.657	1702.798	172.972	86.135	81.881
15.961	98.600	14223.020	493.319	550.340	2477.518	1540.574	173.634	89.204	81.320
16.717	101.200	14411.125	494.402	563.229	2413.976	1434.377	181.263	87.510	81.690
17.493	104.000	14170.049	492.848	563.191	2332.730	1414.801	179.022	87.230	81.537
18.252	107.000	14316.416	487.728	547.041	2290.165	1390.182	176.283	87.370	81.766
19.004	110.000	13927.483	492.835	565.254	2261.469	1392.945	174.895	88.224	83.091
19.773	113.100	14451.499	507.711	554.581	2269.035	1374.847	170.717	87.039	82.874
20.530	116.100	13974.570	511.316	554.874	2218.573	1381.750	165.343	88.262	84.670
21.288	118.700	13951.581	513.659	567.190	2231.284	1342.866	161.904	88.949	88.555
22.049	121.700	13974.405	504.540	581.226	2173.970	1361.321	169.750	89.026	95.802
22.809	124.700	14288.167	487.600	571.011	2164.902	1338.140	166.425	88.606	101.648
23.579	127.600	13853.370	481.551	594.319	2153.273	1327.951	172.653	89.548	115.365
24.341	130.600	13978.404	471.909	609.081	2155.056	1344.292	170.106	89.357	125.860
25.099	133.400	13739.812	457.631	644.170	2079.032	1320.793	174.487	89.013	138.864
25.879	136.300	14107.016	444.233	694.962	2103.563	1315.559	171.393	89.395	146.862
26.638	139.100	13709.958	436.782	819.003	2097.080	1298.568	171.736	91.102	155.154
27.397	141.800	13813.671	426.185	978.832	2054.451	1311.942	173.367	91.076	170.106
28.175	144.600	13741.073	413.576	1215.972	2043.893	1301.905	178.436	90.605	202.495
28.931	147.300	13781.689	413.347	1486.049	1978.949	1316.412	186.383	92.388	257.606
29.686	149.900	13696.724	412.188	1769.155	2046.096	1301.561	195.350	94.464	349.601
30.436	152.600	13677.429	434.655	1964.048	2030.201	1313.444	209.334	100.259	514.563
31.193	155.100	13728.820	456.816	2091.310	2034.939	1333.593	243.379	105.749	785.417
31.952	157.300	13573.792	498.146	2058.336	2020.699	1356.685	262.700	116.779	1170.019
32.713	159.900	13727.445	555.970	2003.824	2067.761	1359.245	312.627	127.159	1662.945
33.469	162.400	13205.518	640.374	1872.180	2053.483	1412.025	368.451	140.698	2138.206
34.224	164.900	13632.596	721.212	1746.433	2078.179	1432.645	421.192	149.091	2300.112
34.980	167.400	13005.416	758.492	1589.864	2081.299	1434.644	386.944	134.903	1324.691
35.735	169.900	13290.088	612.507	1365.435	2037.206	1384.323	312.143	126.140	968.159
36.494	172.300	13039.142	610.813	1259.658	2030.570	1407.287	334.941	129.795	1023.919
37.252	174.800	13376.352	650.945	1197.594	2104.620	1444.477	374.959	144.429	1309.955
38.008	176.800	13141.122	750.723	1191.977	2120.706	1538.255	480.519	166.387	1881.235
38.762	179.200	13220.585	961.587	1272.917	2251.407	1662.028	618.862	208.061	2863.407
39.521	181.600	13102.391	1275.133	1438.911	2371.232	1870.053	865.860	273.781	4090.589
40.280	184.000	13483.784	1672.765	1675.465	2552.943	2029.411	1031.778	303.419	3685.837
41.038	186.400	12988.043	1720.068	1677.732	2537.010	2052.706	948.571	273.131	2115.127
41.792	188.800	13080.701	1529.900	1563.219	2497.858	1974.759	789.314	235.495	1066.790
42.548	191.200	12362.289	1313.151	1449.470	2369.844	1914.898	653.645	200.126	479.322
43.306	193.500	13076.447	1102.796	1311.700	2350.828	1848.808	515.608	164.031	222.720
44.066	195.900	12810.293	929.874	1225.869	2273.403	1796.143	431.382	144.684	132.686
44.821	197.900	13022.470	787.620	1122.996	2259.495	1778.809	352.250	130.636	102.386
45.579	200.300	12948.738	701.267	1062.727	2206.664	1745.006	318.982	118.536	93.484
46.340	202.600	13275.849	640.705	1000.281	2245.141	1730.627	287.409	115.021	88.860
47.100	204.900	12959.845	596.764	972.515	2166.366	1706.708	267.998	109.162	88.478
47.862	207.300	13120.655	566.770	928.804	2194.030	1703.651	253.836	107.201	87.434
48.620	209.600	12860.080	545.373	904.044	2125.291	1652.221	245.557	104.896	86.746
49.379	211.900	13226.788	532.114	875.922	2144.982	1635.829	239.087	101.648	87.001
50.134	214.300	12935.556	518.435	862.230	2118.235	1621.017	236.552	103.316	85.956
50.888	216.600	12909.077	513.583	849.188	2109.447	1634.900	230.681	100.616	85.918
51.645	218.600	12938.664	495.217	840.795	2085.222	1604.842	222.504	101.686	85.613
52.423	221.200	12951.209	486.288	823.193	2090.903	1601.046	226.567	100.209	85.995
53.184	223.200	12970.263	473.705	814.711	2099.118	1568.530	223.790	102.335	86.440
53.932	225.500	12950.636	474.061	801.694	2056.654	1576.312	217.944	99.597	85.460
54.687	227.900	12902.021	466.165	796.981	2080.803	1548.114	218.224	99.241	85.689
55.447	230.200	12861.519	462.548	774.553	2044.835	1551.272	217.193	97.114	85.256
56.205	232.500	13064.640	450.372	781.710	2064.105	1541.796	219.040	98.655	84.110
56.967	234.800	12730.971	448.283	761.969	2025.285	1534.740	210.888	97.203	84.543
57.723	237.100	13145.440	434.477	744.622	2048.121	1519.622	213.920	97.241	84.899
58.483	239.400	12819.043	435.750	751.041	2002.168	1526.933	206.163	97.547	84.657
59.239	241.400	12751.387	422.504	742.610	2041.001	1500.836	206.672	96.388	85.447
59.991	243.700	12542.879	424.033	731.618	2014.229	1493.372	209.322	97.967	85.447
60.751	246.000	12959.845	421.957	723.696	2027.055	1477.324	200.916	95.662	84.657
61.507	248.400	12678.866	411.411	719.875	1969.244	1471.287	198.241	94.057	84.122
62.269	250.700	12866.626	411.640	709.724	2002.117	1461.340	201.565	95.865	84.492
63.028	253.000	12462.664	411.666	719.569	1975.421	1460.321	201.056	95.636	85.052
63.787	255.300	12822.405	396.204	694.147	2004.639	1445.980	199.566	94.821	85.230
64.541	257.600	12438.860	402.635	697.217	1956.877	1452.284	196.305	95.827	83.982
65.296	259.900	12700.925	392.421	690.505	1990.782	1422.965	194.713	96.044	83.715
66.055	261.900	12468.192	395.681	697.548	1954.304	1428.442	196.916	94.655	84.008
66.815	264.200	12678.102	388.065	680.545	1945.809	1404.790	195.605	93.535	84.046
67.571	266.500	12183.341	388.358	681.245	1942.752	1400.906	194.535	96.362	84.313
68.330	268.800	12636.734	376.577	670.088	1957.285	1399.734	193.248	94.706	84.759
69.094	271.100	12316.297	383.251	671.222	1923.992	1392.270	189.555	92.860	84.428
69.857	273.400	12630.353	385.963	660.128	1948.216	1416.571	188.549	94.604	84.696
70.617	275.800	12274.496	383.200	661.886	1900.620	1377.776	193.872	93.420	83.982
71.375	278.100	12469.313	379.048	650.576	1940.065	1390.436	190.128	93.305	83.664
72.133	280.400	12215.017	374.348	654.333	1911.408	1375.917	190.497	92.911	83.677
72.891	282.700	12487.399	380.691	644.946	1907.192	1370.822	187.568	93.764	84.925
73.650	285.000	12060.804	370.998	647.710	1900.404	1347.769	187.122	93.700	85.065
74.406	287.000	12429.499	367.139	631.751	1904.900	1333.734	189.274	94.515	84.861
75.151	289.300	12073.260	359.650	635.012	1880.891	1351.909	188.383	91.726	84.301
75.907	291.600	12462.614	359.510	624.135	1886.852	1346.559	183.212	93.496	84.352
76.667	294.000	12204.089	365.267	632.426	1875.644	1329.492	191.529	93.458	83.766
77.432	296.300	12173.585	360.070	627.599	1856.883	1349.973	186.078	92.936	83.664
78.203	298.600	12330.957	361.535	614.685	1870.613	1313.992	187.135	92.707	84.454
78.964	300.900	12110.183	362.172	619.563	1855.635	1332.358	186.562	91.510	84.657
79.722	303.200	12176.769	354.415	615.067	1889.807	1315.903	183.034	91.853	83.970
80.481	305.500	11998.739	366.706	620.187	1851.050	1341.108	182.040	91.522	84.683
81.239	307.800	12257.404	353.103	612.456	1882.343	1310.910	183.454	93.051	84.632
81.997	309.800	12032.491	356.835	606.317	1852.604	1306.121	184.919	91.459	83.842
82.759	312.100	12324.792	356.288	599.274	1860.246	1275.553	180.652	91.777	84.250
83.515	314.400	11860.269	356.097	602.279	1842.835	1304.032	181.378	91.752	84.619
84.277	316.700	12216.316	349.983	594.969	1854.960	1271.529	182.830	91.242	83.982
85.038	319.000	11976.985	353.626	591.084	1856.297	1291.385	183.925	92.923	83.868
85.799	321.300	12225.843	352.250	590.065	1883.655	1271.860	178.308	91.993	83.740
86.556	323.600	11944.342	348.939	594.434	1857.011	1252.169	176.449	91.178	84.568
87.315	325.900	11914.628	345.194	587.951	1875.160	1262.269	179.684	91.573	83.982
88.073	328.200	11860.765	341.233	580.602	1862.806	1255.150	177.773	91.548	83.651
88.830	330.500	12123.442	346.684	586.117	1876.625	1258.194	179.149	92.172	84.390
89.601	332.900	11851.340	344.443	582.589	1839.523	1235.574	178.461	91.675	83.842
90.362	334.800	11901.942	340.100	571.483	1855.202	1254.526	173.036	90.618	83.180
91.117	337.100	11585.009	337.043	568.490	1827.156	1217.755	174.742	91.166	83.868
91.874	339.400	11983.277	336.113	568.719	1850.197	1218.367	175.213	90.312	84.301
92.632	341.800	11701.993	331.502	570.706	1828.150	1221.067	169.660	91.102	83.536
93.389	344.100	11917.201	333.336	567.713	1835.448	1233.090	170.361	91.433	83.982
94.154	346.400	11640.705	331.171	575.928	1849.216	1224.697	172.908	90.427	83.435
94.914	348.700	11868.700	333.782	561.892	1818.496	1225.474	172.131	90.873	84.746
95.673	351.000	11716.767	318.932	563.637	1795.965	1198.689	172.399	90.542	83.868
96.431	353.300	11690.899	325.134	561.663	1773.154	1217.501	170.883	90.134	84.148
97.191	355.600	11713.749	322.956	561.179	1777.038	1203.516	171.469	91.777	83.613
97.953	357.600	11638.247	324.892	553.970	1755.106	1188.665	171.227	90.542	82.696
98.713	359.900	11806.750	324.752	562.045	1792.628	1189.570	169.393	88.911	84.441
99.474	362.200	11430.235	320.625	570.986	1745.987	1194.537	168.947	90.809	83.613
100.238	364.500	11667.579	322.498	544.278	1719.419	1183.749	168.603	91.178	83.689
100.996	366.800	11423.549	316.881	554.836	1737.110	1178.069	170.781	90.682	83.460
101.756	369.100	11667.299	314.487	554.785	1749.986	1160.263	165.126	88.478	83.804
102.514	371.500	11112.716	312.627	552.301	1714.426	1172.172	167.775	90.198	83.702
103.270	373.800	11608.966	315.123	551.868	1738.931	1149.603	169.724	90.376	82.823
104.025	376.100	11344.009	314.155	554.734	1730.996	1159.461	167.572	90.503	83.320
104.785	378.400	11575.685	311.060	547.882	1749.528	1155.856	166.769	88.415	83.282
105.540	380.400	11224.771	309.825	543.883	1707.969	1156.098	170.233	89.472	83.919
106.298	382.700	11477.602	298.477	533.617	1735.607	1141.999	164.629	91.153	83.753
107.054	385.000	11325.312	311.290	540.406	1720.298	1155.156	165.801	89.484	83.970
107.816	387.300	11539.972	308.233	549.487	1742.930	1138.968	163.114	90.669	84.110
108.576	389.600	11195.974	306.883	549.983	1699.359	1127.505	170.361	91.076	84.110
109.337	391.900	11475.895	310.513	536.330	1712.541	1141.910	167.712	91.344	84.020
110.107	394.200	11302.234	303.622	547.080	1710.758	1125.926	170.017	90.134	83.294
110.864	396.500	11511.366	304.272	548.290	1739.148	1149.208	167.572	90.707	83.995
111.622	398.800	10898.539	303.049	549.856	1712.235	1120.857	165.725	89.968	84.645
112.378	401.100	11420.530	308.322	544.354	1724.246	1136.790	165.330	89.930	83.804
113.137	403.400	11193.414	309.226	545.551	1705.332	1109.840	165.254	89.242	84.186
113.895	405.400	11379.621	308.220	550.455	1731.200	1147.680	165.992	89.497	83.664
114.654	407.700	11055.172	301.941	553.855	1714.859	1113.266	167.661	90.274	84.059
115.414	410.000	11307.647	302.884	543.080	1701.435	1123.544	165.699	89.370	83.995
116.176	412.300	11079.664	297.471	538.533	1719.126	1112.998	163.865	91.140	84.020
116.934	414.600	11142.302	295.293	535.795	1675.860	1107.267	164.324	89.586	84.657
117.696	416.900	11237.049	299.305	550.264	1721.036	1094.849	167.113	90.885	83.435
118.454	419.200	10932.597	301.534	541.144	1710.541	1104.528	164.693	90.529	84.568
119.214	421.500	11232.502	293.127	537.578	1717.432	1090.302	161.878	90.898	83.269
119.973	423.900	10999.972	300.120	534.420	1677.809	1096.352	165.177	90.019	84.390
120.732	426.200	11164.820	299.381	541.794	1729.659	1089.882	165.050	90.401	84.186
121.493	428.100	11018.593	299.216	545.806	1687.285	1097.269	165.368	90.058	84.148
122.249	430.400	11180.817	300.043	540.864	1731.098	1091.817	163.572	89.867	84.530
123.033	433.100	11007.067	302.756	550.760	1705.880	1110.693	166.183	89.726	83.982
123.792	435.000	11231.878	295.012	541.909	1733.225	1097.180	163.050	90.631	84.746
124.553	437.300	11024.197	302.170	550.276	1719.890	1090.034	165.750	89.484	82.645
125.314	439.700	11203.017	300.667	539.387	1703.485	1101.370	165.292	89.905	84.046
126.070	442.000	10958.070	301.050	550.557	1703.791	1086.252	162.630	90.592	83.970
126.832	444.300	11186.994	298.591	551.334	1732.435	1099.536	165.330	90.809	83.766
127.591	446.600	10901.571	300.515	546.379	1713.242	1071.872	166.616	91.739	84.619
128.346	448.900	11036.220	307.239	552.136	1726.462	1094.989	168.208	89.943	83.817
129.103	451.200	10938.303	301.241	544.698	1714.108	1080.062	164.808	90.198	83.626
129.864	453.500	11131.515	301.865	546.532	1697.041	1091.397	160.949	90.440	84.097
130.623	455.800	10681.650	307.864	556.543	1701.970	1076.394	165.050	90.032	83.027
131.383	457.800	11092.401	296.859	542.545	1713.216	1086.201	163.763	90.987	84.020
132.134	460.100	10784.535	301.292	556.033	1695.665	1078.419	167.088	89.714	83.817
132.893	462.400	11036.857	300.795	552.403	1706.007	1077.018	162.885	90.300	83.880
133.650	464.700	10814.619	303.036	549.181	1704.020	1059.620	168.756	90.885	84.250
134.416	467.100	10874.238	302.209	539.399	1687.246	1067.236	163.432	90.936	83.931
135.174	469.400	10962.616	304.705	556.033	1717.992	1063.390	168.208	92.032	84.212
135.935	471.700	10817.281	301.941	548.506	1678.573	1076.343	169.316	89.905	84.084
136.695	474.000	10853.134	303.164	560.924	1712.184	1065.822	168.489	90.236	84.683
137.470	476.300	10745.294	304.387	550.633	1697.830	1087.334	168.017	91.841	84.441
138.232	478.600	10990.739	300.871	544.379	1705.345	1057.607	165.559	90.389	85.218
138.989	480.900	10763.928	306.335	547.742	1692.723	1100.491	166.285	90.542	83.702
139.748	482.900	11015.702	310.895	546.252	1725.558	1079.973	163.254	89.994	84.504
140.507	485.200	10746.059	307.673	551.945	1695.398	1080.622	168.170	89.281	84.352
141.273	487.500	10915.772	306.157	548.850	1710.389	1071.210	163.853	90.720	83.868
142.030	489.800	10671.334	311.570	553.397	1679.044	1096.364	166.769	90.962	83.384
142.805	492.100	10854.751	304.081	547.971	1719.151	1090.620	162.464	90.949	84.632
143.565	494.400	10560.145	306.042	560.695	1695.640	1088.366	163.458	91.369	83.549
144.324	496.700	10748.262	311.277	563.739	1702.250	1101.523	167.011	90.860	84.071
145.083	499.100	10321.731	309.061	557.167	1675.567	1094.174	168.310	89.675	84.492
145.835	501.400	10720.178	317.862	558.797	1711.726	1111.317	168.412	90.261	84.428
146.587	503.700	10422.234	304.832	569.776	1720.578	1126.855	170.450	90.631	83.715
147.345	506.000	10735.564	310.054	552.403	1730.194	1143.438	168.107	90.529	85.434
148.107	508.000	10494.972	312.602	562.058	1694.213	1151.335	164.247	91.191	84.721
148.864	510.300	10691.254	313.378	558.339	1746.344	1177.941	163.993	91.701	84.899
149.620	512.600	10583.389	306.705	560.262	1729.621	1226.696	168.272	91.153	84.020
150.379	514.900	10706.932	314.843	568.146	1763.461	1257.111	168.731	91.879	84.199
151.137	517.200	10516.191	321.199	574.043	1753.540	1294.798	168.387	91.433	85.511
151.898	519.500	10740.862	317.671	562.389	1779.433	1345.426	166.425	91.306	83.944
152.660	521.800	10603.245	319.785	568.375	1793.226	1393.671	169.737	90.745	83.638
153.421	524.100	10736.761	319.441	558.275	1784.846	1453.991	166.056	91.866	83.791
154.184	526.400	10695.597	329.070	565.446	1820.877	1499.027	170.233	91.051	83.180
154.945	528.700	10588.662	321.415	560.924	1835.257	1578.719	172.730	92.044	84.606
155.701	531.100	10697.762	325.325	565.509	1854.438	1663.047	171.558	90.822	84.097
156.457	533.000	10616.631	332.330	568.235	1860.169	1720.782	170.998	91.306	84.352
157.216	535.300	10756.719	328.586	583.493	1901.372	1787.546	174.182	91.433	84.059
157.977	537.600	10565.863	333.222	572.871	1911.128	1900.060	175.596	92.248	84.008
158.736	539.900	10884.937	334.929	580.997	1951.120	1946.599	168.463	93.675	85.154
159.498	542.300	10552.286	339.539	567.687	1972.072	2037.575	174.322	91.611	84.899
160.258	544.600	10979.238	340.940	584.601	2011.096	2100.366	173.927	91.726	85.027
161.018	546.900	10800.265	334.304	583.200	1997.812	2089.005	178.181	92.477	85.052
161.777	549.200	10930.826	334.585	575.686	2043.358	2044.555	172.093	92.185	84.390
162.534	551.500	10767.481	342.061	583.990	1997.328	1945.134	175.990	91.395	84.326
163.295	553.800	10932.418	337.081	575.393	1991.928	1872.333	171.762	91.573	85.243
164.056	555.800	10456.457	340.240	577.851	1943.848	1753.565	171.736	93.382	84.797
164.817	558.100	10796.673	333.833	583.824	1917.891	1716.145	170.998	92.796	83.473
165.582	560.400	10462.609	339.093	584.015	1845.739	1668.422	172.883	92.605	84.543
166.343	562.700	10675.435	345.271	583.149	1869.136	1715.190	173.991	91.675	85.039
167.100	565.000	10425.648	344.481	590.231	1815.719	1754.597	171.647	90.669	84.555
167.859	567.300	10438.180	339.692	595.771	1861.379	1815.757	169.724	93.331	84.377
168.619	569.600	10371.874	337.807	588.613	1823.730	1733.136	172.424	90.694	85.052
169.379	571.900	10570.474	337.629	596.408	1788.858	1615.655	172.997	91.510	84.619
170.138	574.200	10221.088	335.616	591.848	1753.743	1430.887	170.552	92.325	84.403
170.899	576.500	10522.865	337.208	577.698	1737.224	1228.161	167.992	91.853	83.702
171.658	578.800	10230.538	334.292	584.206	1687.578	1083.259	168.743	91.331	84.199
172.418	581.200	10284.999	335.986	567.547	1678.229	1064.345	167.826	91.408	84.466
173.179	583.100	10232.003	335.120	591.937	1683.222	1027.014	167.406	90.949	84.237
173.939	585.400	10183.388	338.457	573.419	1661.710	1008.801	167.228	92.694	84.275
174.703	587.700	10301.557	331.923	585.531	1653.036	983.163	170.004	93.114	84.377
175.461	590.000	10190.877	340.074	579.659	1645.980	997.491	167.342	92.821	84.517
176.217	592.300	10385.273	339.233	578.882	1676.803	984.933	170.679	93.802	83.817
176.973	594.600	10093.851	349.308	582.984	1662.181	994.231	167.928	92.847	84.288
177.733	597.000	10363.367	348.073	585.518	1660.691	974.515	172.513	92.401	85.332
178.494	599.300	10099.684	342.558	574.399	1628.761	971.063	169.266	91.662	84.250
179.248	601.600	10156.921	344.634	580.283	1666.894	975.776	170.565	91.688	84.313
180.008	603.900	10203.728	347.894	587.760	1639.829	991.582	172.437	92.108	83.880
180.760	605.800	10347.051	341.348	583.035	1657.252	977.712	171.418	90.898	85.090
181.520	608.100	10244.676	341.208	584.461	1643.153	997.593	169.087	91.382	84.403
182.279	610.400	10464.889	342.698	588.804	1673.045	973.954	169.609	93.153	83.842
183.040	612.700	10267.907	351.066	595.134	1621.374	995.301	175.404	91.637	84.301
183.800	615.000	10425.368	347.321	590.906	1638.453	976.336	167.240	89.956	85.052
184.562	617.400	10111.249	348.595	592.421	1626.672	985.952	172.055	93.611	84.377
185.320	619.700	10397.080	357.064	582.207	1655.329	986.933	172.743	93.191	83.345
186.080	622.100	10186.432	344.366	585.225	1600.970	963.167	166.438	92.235	84.135
186.840	624.500	10037.008	344.353	583.162	1631.410	966.172	163.369	91.242	85.345
187.599	626.900	10077.662	334.648	581.939	1572.822	946.584	164.464	92.681	84.262
188.362	628.900	10202.085	335.807	579.303	1581.190	962.721	167.661	93.267	84.199
189.118	631.300	9879.458	336.330	579.124	1562.862	964.759	165.890	92.363	84.925
189.866	633.600	10090.131	332.852	578.016	1609.987	957.843	167.202	91.624	84.071
190.621	636.000	10056.049	335.514	581.850	1571.510	957.321	168.565	91.522	84.275
191.399	638.300	10285.776	336.049	573.317	1588.717	960.454	167.470	91.777	84.454
192.161	640.600	10106.230	334.394	578.590	1574.873	957.868	166.998	91.968	83.231
192.917	642.900	10134.951	335.107	572.438	1578.363	966.605	168.094	91.076	84.250
193.678	645.200	10189.756	334.941	578.615	1591.239	961.740	164.286	91.790	85.027
194.429	647.500	10024.169	333.298	579.417	1576.885	964.886	167.228	91.484	83.766
195.185	649.500	10300.576	335.158	587.556	1585.928	965.319	168.399	90.198	83.320
195.960	652.100	10113.452	335.145	576.182	1568.938	973.585	164.273	92.465	84.262
196.719	654.000	10386.088	334.521	587.976	1615.311	962.746	170.081	93.560	84.212
197.477	656.300	10177.771	332.980	578.169	1559.423	975.776	165.126	92.630	84.275
198.237	658.600	10418.019	331.095	583.111	1623.297	957.244	165.101	90.758	84.517
198.997	660.900	9982.891	331.541	578.144	1586.399	982.921	170.705	92.248	84.110
199.753	663.200	10218.438	328.930	577.087	1597.773	963.956	167.444	90.643	84.836
200.508	665.500	10170.384	331.974	582.207	1586.921	970.516	166.565	93.649	84.645
201.266	667.800	10367.289	336.724	577.532	1618.750	949.004	163.216	93.051	84.033
202.026	670.100	10079.904	334.292	589.046	1592.640	963.141	163.942	91.127	84.632
202.785	672.400	10378.217	326.268	578.449	1607.797	965.701	163.483	90.987	84.543
203.542	674.400	10155.533	327.720	589.199	1574.045	977.559	165.890	92.337	84.645
204.300	676.700	10411.090	324.727	578.590	1590.067	974.094	161.203	91.917	84.555
205.063	679.000	10109.211	331.668	580.500	1591.647	961.422	163.598	92.401	83.829
205.823	681.300	10314.688	331.133	583.977	1600.142	967.331	165.674	91.892	84.708
206.580	683.600	10167.900	334.152	583.595	1558.787	970.363	164.642	92.006	84.008
207.339	685.900	10218.948	328.458	578.373	1595.786	960.759	162.961	92.961	84.135
208.119	688.200	10117.362	325.656	580.678	1566.263	943.693	166.387	93.535	84.224
208.877	690.500	10331.920	330.063	579.901	1591.825	960.759	166.871	92.821	84.797
209.633	692.800	10146.210	321.772	576.692	1571.943	951.436	168.692	92.261	84.504
210.394	695.100	10412.351	336.750	584.092	1555.017	951.678	163.903	92.083	84.199
211.153	697.400	10175.313	323.580	591.912	1604.931	958.823	165.572	93.114	83.995
211.912	699.700	10390.189	325.351	574.718	1556.494	971.191	161.649	92.019	84.530
212.674	702.100	10317.515	323.147	575.011	1580.502	968.121	166.680	90.809	84.492
213.436	704.000	10305.811	324.434	586.677	1548.164	971.305	166.336	91.777	84.797
214.198	706.300	10339.473	325.580	585.646	1589.634	955.881	161.878	92.745	84.912
214.956	708.600	10239.734	316.282	584.474	1583.241	954.022	162.324	91.917	84.670
215.717	710.900	10445.606	326.548	591.530	1597.556	976.986	164.082	93.407	84.734
216.477	713.300	10302.639	325.720	582.831	1567.600	963.803	166.005	92.044	84.976
217.238	715.600	10444.982	323.262	593.198	1593.621	971.815	165.992	92.210	84.059
217.997	717.800	10214.465	319.263	575.163	1602.778	973.369	164.375	93.293	84.173
218.755	720.100	10498.182	317.671	595.835	1587.813	957.970	163.738	92.707	84.721
219.512	722.400	10268.123	318.167	591.937	1576.681	982.602	166.769	92.618	85.944
220.292	724.700	10456.788	321.517	590.613	1596.092	971.776	164.604	93.649	84.135
221.063	727.000	10228.755	319.836	598.484	1573.701	962.224	169.992	92.694	84.403
221.822	729.300	10517.350	312.793	575.278	1581.356	966.313	166.514	91.013	84.415
222.595	731.600	10173.504	319.135	590.294	1560.888	950.965	166.986	92.108	85.014
223.363	734.000	10217.865	317.187	589.365	1598.091	970.796	163.318	93.267	84.950
224.135	736.300	10209.039	308.895	588.944	1581.598	957.053	164.871	92.898	84.441
224.897	738.600	10507.034	312.474	592.332	1590.666	966.644	164.247	93.496	84.721
225.659	740.900	10326.011	312.894	589.212	1579.534	950.010	159.522	93.356	83.931
226.419	742.800	10081.687	313.786	577.978	1572.262	966.338	167.597	93.993	85.218
227.178	745.100	10430.475	308.844	590.638	1608.102	960.759	165.980	93.076	84.848
227.938	747.400	10357.813	313.149	587.900	1562.187	950.634	161.496	93.751	84.683
228.692	749.800	10278.121	310.424	589.275	1586.043	962.313	163.942	91.420	83.982
229.449	752.100	10294.985	315.722	589.670	1577.369	964.529	163.649	92.274	85.205
230.212	754.400	10550.108	304.399	591.288	1591.443	959.779	167.406	92.134	84.237
230.970	756.700	10076.070	306.373	585.646	1570.542	960.199	167.801	93.840	84.696
231.723	759.000	10527.514	306.857	586.231	1596.104	956.607	165.457	92.847	84.454
232.484	761.300	10318.560	310.742	588.295	1569.129	964.644	164.120	93.484	84.645
233.243	763.600	10583.389	304.616	590.702	1599.276	961.880	163.458	91.701	84.364
234.002	765.600	10341.727	304.629	592.179	1582.031	962.746	168.157	91.815	84.377
234.757	767.900	10383.872	303.864	589.186	1605.084	955.283	164.260	93.815	84.696
235.530	770.200	10401.971	309.952	596.510	1608.892	958.900	167.724	91.866	84.148
236.289	772.500	10595.603	305.444	584.232	1604.205	961.982	161.012	93.102	84.721
237.051	774.800	10343.969	295.051	583.633	1594.398	944.992	169.380	91.573	84.632
237.814	777.100	10566.169	300.502	586.817	1587.902	964.848	164.948	92.172	84.696
238.573	779.400	10158.271	303.342	594.727	1593.646	964.491	163.776	93.458	84.504
239.335	781.700	10575.237	305.851	591.466	1614.840	969.879	163.967	94.655	84.517
240.091	784.000	10456.954	299.992	594.204	1568.606	951.513	161.496	93.917	84.186
240.845	786.400	10531.602	291.434	586.728	1604.319	954.289	162.197	92.796	84.008
241.605	788.700	10290.590	301.253	597.923	1579.229	951.054	165.827	92.325	83.651
242.366	790.600	10628.234	302.081	591.899	1616.788	964.593	165.101	93.038	84.492
243.126	792.900	10325.527	296.987	602.190	1598.703	952.315	165.661	92.185	84.504
243.887	795.200	10403.626	294.847	562.580	1542.433	915.405	158.198	91.076	85.192
244.645	797.400	9448.711	276.086	553.932	1476.649	879.947	155.701	90.745	83.256
245.394	799.100	9476.362	268.508	533.706	1444.362	884.825	155.090	92.554	84.313
246.152	800.400	9251.271	262.254	522.142	1443.560	872.763	152.734	91.217	84.186
246.908	801.200	5554.606	212.035	331.477	864.039	542.023	126.649	90.019	84.250
247.670	800.000	5381.199	204.062	320.587	856.613	545.169	123.580	89.637	83.957
248.431	797.500	5325.910	200.839	312.805	836.261	535.260	123.427	88.555	84.568
