Wed, Oct 11, 2017	3:34 PM
 Notes: GUA_0 L__101117
 waiting time: 50.000
 time(s)	 temp (K)	 MS1=2.071	 MS2=27.907	 MS3=78.871	 MS4=125.586	 MS5=17.847	 MS6=78.871	 MS7=109.505	 MS8=125.586
0.000	98.800	3660.765	11857.709	7.676	29.882	2232.181
1.082	98.800	3515.327	11958.288	7.213	30.358	2252.423
2.190	98.800	3549.888	12086.646	7.810	29.266	2297.767
3.276	98.800	3506.920	12145.947	7.220	29.384	2276.876
4.362	98.800	3716.488	12073.248	7.703	31.045	2278.107
5.481	98.800	3670.246	12021.741	7.260	28.905	2322.824
6.564	98.900	3699.700	12029.460	7.394	30.588	2360.873
7.674	98.900	3546.516	12237.255	7.884	29.906	2384.506
8.783	98.900	3548.929	12131.046	7.388	31.388	2358.890
9.859	98.900	3714.127	12168.898	7.667	31.663	2383.594
10.958	98.900	3677.811	12026.008	7.035	31.921	2377.433
12.047	98.900	3674.011	11962.504	7.537	32.017	2427.543
13.134	99.000	3493.860	12244.145	8.029	32.470	2461.157
14.239	99.100	3532.679	12979.102	8.293	32.564	2461.219
15.352	99.500	3696.412	17078.774	7.658	33.897	2489.317
16.422	100.600	3793.931	17422.110	7.615	33.185	2482.227
17.497	102.500	3843.816	17253.594	7.749	33.099	2523.112
18.609	105.400	3701.353	17883.959	7.427	34.181	2555.601
19.686	109.200	3775.211	17534.866	7.816	34.938	2569.478
20.804	113.800	3722.761	16920.549	8.383	33.678	2563.566
21.913	118.500	3922.188	16282.135	7.989	33.810	2583.456
22.989	123.100	3870.935	16016.681	8.227	35.000	2619.476
24.104	127.700	3766.079	15984.000	8.156	34.887	2662.733
25.197	132.100	3766.519	16068.468	8.335	35.308	2693.076
26.271	136.300	3679.936	16000.111	7.616	33.968	2691.404
27.386	140.500	3855.238	15734.276	7.507	37.534	2733.318
28.494	144.600	3852.478	15501.963	8.115	35.657	2816.706
29.602	148.600	3734.288	15163.365	8.062	35.726	2982.610
30.687	152.600	3632.429	15014.590	8.008	36.565	3144.213
31.799	156.400	3656.445	14747.736	8.295	36.928	3145.647
32.872	160.200	3774.445	14474.578	8.412	38.075	3071.168
33.974	163.900	3772.069	14148.308	8.369	36.958	3047.700
35.052	167.100	3769.184	13996.961	8.823	38.172	3052.096
36.127	170.700	3545.441	14112.786	8.374	38.358	3063.472
37.201	174.200	3625.648	14099.438	8.048	38.109	3074.305
38.276	177.700	3576.010	14064.413	9.120	38.851	3066.911
39.349	181.200	3721.732	14079.251	8.506	39.153	3052.775
40.451	184.600	3737.042	13735.634	8.867	38.682	3088.731
41.559	188.000	3702.642	13651.485	8.762	39.746	3163.181
42.631	191.100	3606.217	13628.177	8.571	41.047	3198.684
43.742	194.500	3577.198	13708.327	8.387	38.878	3154.935
44.876	198.200	3721.344	13546.205	9.013	41.158	3199.705
45.952	201.500	3690.321	13446.848	8.898	40.893	3217.608
47.028	204.500	3727.725	13340.002	8.608	41.665	3308.017
48.147	208.200	3539.067	13419.083	9.214	43.992	3300.333
49.225	211.200	3539.206	13456.120	9.185	41.355	3338.776
50.299	214.500	3562.089	13427.973	8.252	43.192	3336.660
51.397	217.800	3690.088	13325.126	9.278	42.892	3354.987
52.474	221.100	3719.965	13344.600	8.392	43.780	3389.899
53.589	224.400	3635.209	13322.655	9.164	43.369	3470.743
54.697	227.700	3574.384	13433.742	8.616	44.515	3485.754
55.816	231.100	3551.240	13380.109	9.027	44.482	3485.397
56.889	234.400	3723.675	13292.113	8.560	44.504	3487.766
57.964	237.700	3707.039	13241.320	9.745	43.355	3532.412
59.037	241.000	3708.264	13255.037	9.367	44.362	3593.999
60.113	243.900	3610.221	13354.369	9.175	45.315	3646.337
61.187	247.200	3599.683	13506.926	9.429	46.130	3667.737
62.283	250.500	3608.663	13489.362	9.464	44.864	3652.371
63.357	253.800	3737.204	13491.196	8.884	46.889	3684.988
64.431	257.100	3748.353	13337.187	8.867	45.929	3707.430
65.522	260.100	3809.844	13219.974	9.445	47.244	3810.548
66.597	263.400	3675.817	13315.548	8.894	47.374	3847.943
67.671	266.700	3624.190	13482.013	9.981	48.110	3866.621
68.745	270.000	3694.767	13400.156	9.713	47.551	3885.544
69.818	273.300	3672.243	13494.113	10.258	47.252	3905.683
70.932	276.600	3884.353	13358.597	10.414	49.324	3934.560
72.036	279.900	3845.478	13417.172	10.267	49.872	4029.302
73.146	283.200	3729.821	13588.121	10.034	51.691	4067.584
74.252	286.500	3697.050	13600.717	9.043	50.096	4067.605
75.356	289.800	3891.483	13637.793	9.276	49.043	4070.231
76.431	293.100	3902.305	13435.818	10.453	50.398	4119.823
77.538	296.400	3902.694	13523.751	9.798	51.748	4216.655
78.654	299.700	3757.478	13638.124	10.156	51.973	4261.460
79.731	303.000	3739.905	13649.752	10.888	52.070	4266.542
80.804	306.000	3817.045	13615.466	11.162	52.954	4283.675
81.915	309.600	3940.818	13548.816	9.488	52.454	4286.873
83.030	312.900	3982.960	13510.530	10.200	54.275	4400.010
84.109	315.800	3819.014	13630.087	10.704	53.674	4450.870
85.187	319.100	3778.913	13714.097	9.433	53.667	4500.838
86.260	322.400	3814.945	13717.256	10.225	54.834	4470.220
87.333	325.700	3830.891	13746.511	10.325	54.421	4505.191
88.450	329.000	3978.981	13528.132	10.825	56.555	4552.326
89.562	332.300	3975.410	13538.601	10.203	55.820	4642.978
90.654	335.600	3841.214	13685.580	10.510	56.303	4710.456
93.160	343.200	3789.017	13655.331	11.343	57.290	4794.682
94.233	346.500	3829.027	13724.146	11.489	57.085	4826.797
95.325	349.500	3865.378	13694.317	11.089	57.556	4813.370
96.405	352.800	3989.523	13615.160	10.736	56.529	4842.239
97.480	356.100	4011.511	13576.938	10.283	58.074	4932.551
98.562	359.400	3991.961	13704.596	11.063	60.651	4983.869
99.639	362.700	3855.142	13753.287	11.466	61.705	5061.067
100.712	365.700	3856.237	13830.470	10.715	61.209	5091.832
101.788	369.000	3798.976	13903.539	12.442	60.109	5106.715
102.906	372.300	4010.104	13763.145	10.768	61.596	5190.245
103.978	375.600	4028.663	13876.665	11.898	65.757	5174.772
105.046	378.900	4014.210	13948.333	11.721	63.783	5303.601
106.122	382.100	3833.325	14033.833	12.044	65.189	5320.425
107.196	385.100	3823.961	14221.772	11.554	63.590	5385.511
108.272	388.400	3830.651	14316.607	11.416	62.290	5380.510
109.347	391.700	3903.021	14527.128	11.440	65.494	5394.818
110.424	395.000	3982.648	14421.849	11.574	64.998	5456.854
111.497	398.000	3958.292	14507.259	11.616	66.124	5528.284
112.585	401.300	3856.299	14557.492	12.019	65.084	5609.071
113.662	404.600	3756.478	14687.811	13.399	65.743	5663.579
114.740	407.900	3674.770	14708.100	12.854	66.051	5671.690
115.816	411.200	3722.934	14710.457	12.580	67.942	5694.981
116.938	414.500	3863.723	14532.796	13.027	68.444	5740.762
118.011	417.700	3860.530	14501.515	12.289	67.787	5828.628
119.087	420.700	3793.242	14501.273	12.378	69.748	5932.289
120.195	424.300	3679.263	14639.387	12.166	71.180	5942.068
121.271	427.300	3704.689	14597.166	13.529	70.714	5924.190
122.347	430.600	3768.133	14659.001	12.505	71.035	5980.979
123.425	433.900	3843.510	14455.422	12.051	71.580	6033.542
124.500	437.200	3848.266	14440.189	12.574	71.631	6152.929
125.578	440.200	3806.195	14527.854	12.414	74.211	6215.504
126.652	443.500	3713.346	14635.375	12.625	75.336	6246.786
127.779	446.800	3685.336	14649.029	13.237	75.392	6257.259
128.889	450.400	3862.536	14534.375	13.457	75.435	6281.326
129.969	453.300	3846.591	14555.085	14.107	74.974	6327.971
131.043	456.700	3820.750	14531.790	12.648	74.871	6476.838
132.156	460.000	3737.197	14656.174	14.809	78.281	6507.888
133.269	463.300	3716.120	14748.781	14.125	75.794	6497.424
134.347	466.600	3816.521	14734.923	13.987	77.495	6578.676
135.423	469.800	3828.510	14582.557	13.448	77.673	6586.693
136.503	473.200	3863.672	14636.674	13.895	79.172	6721.635
137.576	476.500	3842.939	14679.584	14.253	80.335	6816.215
138.652	479.400	3704.047	14758.409	13.602	80.260	6848.861
139.742	482.700	3714.083	14626.600	14.120	81.461	6860.637
140.822	486.000	3701.630	14605.266	14.176	79.538	6883.085
141.935	489.300	3872.187	14302.903	14.042	80.178	6933.912
143.012	492.600	3852.325	14206.093	14.648	83.204	7093.686
144.087	495.900	3792.913	14171.195	13.995	84.216	7127.830
145.178	499.200	3705.293	14236.674	14.271	84.026	7210.377
146.253	502.200	3686.845	14190.453	14.427	83.072	7173.514
147.331	505.500	3772.676	14122.287	14.694	86.441	7225.278
148.438	508.800	3865.996	13997.458	14.482	85.194	7285.719
149.511	512.100	3854.279	13912.620	14.476	85.070	7432.327
150.586	515.400	3814.011	13897.502	15.392	88.616	7481.247
151.664	518.700	3689.962	14081.149	14.977	89.066	7520.179
152.736	521.600	3716.585	13986.148	15.236	88.886	7562.210
153.811	524.900	3710.231	14024.752	14.899	90.364	7574.891
154.884	528.200	3864.269	13793.662	14.009	89.281	7643.352
155.965	531.500	3845.147	13703.895	15.769	89.905	7713.716
157.039	534.500	3830.702	13754.484	14.679	90.171	7822.754
158.117	537.800	3697.472	13797.253	15.440	92.484	7920.441
159.193	541.100	3698.588	13911.792	15.932	92.407	7941.755
160.273	544.400	3666.104	13875.812	15.548	92.422	7961.023
161.349	547.700	3805.265	13962.853	15.364	93.950	7990.356
162.432	551.000	3827.773	13860.490	16.635	95.694	8037.495
163.505	553.900	3851.014	13790.847	15.242	93.538	8264.064
164.572	557.200	3853.229	13885.874	16.989	98.619	8322.188
165.647	560.500	3716.498	14035.807	16.275	96.890	8362.982
166.727	563.800	3731.093	14018.142	17.079	98.749	8371.003
167.801	566.800	3703.106	14035.005	16.674	97.431	8352.339
168.878	570.100	3890.193	13963.502	16.703	98.665	8427.954
169.953	573.400	3869.010	13939.214	16.962	96.536	8529.787
171.029	576.700	3859.555	13997.865	18.138	100.935	8672.108
172.141	580.000	3724.380	14099.629	17.295	101.783	8707.570
173.262	583.300	3708.621	14095.910	16.683	101.586	8705.156
174.337	586.600	3826.174	14164.088	16.830	102.840	8782.775
175.417	589.900	3919.638	13990.249	16.873	103.976	8815.352
176.489	592.900	3873.137	14082.244	18.062	104.299	8931.258
177.586	596.100	3861.012	14074.360	17.659	103.881	9072.453
178.657	599.400	3752.142	14333.751	18.673	105.908	9130.700
179.735	602.800	3779.702	14336.591	18.374	105.412	9136.269
180.811	606.100	3748.496	14333.381	18.626	103.771	9099.673
181.892	609.000	3934.206	14269.814	17.808	106.306	9177.418
182.965	612.300	3931.777	14177.194	19.383	110.361	9264.260
184.041	615.600	3916.502	14225.962	18.942	113.003	9381.984
185.118	618.900	3766.694	14255.269	18.272	111.598	9437.799
186.192	622.200	3739.560	14405.737	18.726	111.097	9477.071
187.268	625.200	3739.177	14375.488	18.625	109.445	9455.061
188.341	628.500	3840.740	14438.470	19.232	112.866	9528.223
189.429	631.800	3904.742	14354.562	20.050	112.651	9549.569
190.506	635.100	3966.131	14467.980	19.395	117.297	9666.800
191.619	638.300	3755.169	14512.711	19.494	116.312	9720.511
192.698	641.600	3782.231	14536.069	19.917	116.899	9753.467
193.774	644.600	3771.520	14584.430	20.328	118.397	9705.590
194.850	647.900	3886.486	14567.490	19.710	115.717	9769.029
195.924	651.200	3974.951	14426.459	20.053	116.387	9818.755
197.018	654.500	3929.269	14430.904	20.046	121.149	9939.563
198.108	657.800	3842.776	14436.356	20.985	119.739	9979.410
199.184	661.100	3796.478	14610.781	19.304	121.332	10027.788
200.264	664.100	3799.676	14733.319	20.105	121.404	9979.326
201.344	667.400	3945.627	14715.093	21.465	121.081	9996.881
202.419	670.700	3928.836	14576.635	19.121	122.898	10021.673
203.493	673.900	3973.823	14524.377	20.706	122.894	10081.029
204.568	677.300	3948.274	14620.410	20.839	125.512	10098.454
205.646	680.200	3794.551	14748.450	22.545	126.963	10125.676
206.723	683.500	3827.059	14800.643	21.676	125.123	10159.036
207.800	686.900	3793.984	14899.733	20.518	123.357	10128.208
208.875	690.200	3947.022	14762.918	21.004	125.923	10172.481
209.954	693.500	3955.917	14711.934	21.745	129.310	10182.443
211.029	696.400	3955.611	14722.378	23.769	129.340	10252.112
212.106	699.700	3836.836	14698.523	23.429	132.733	10287.878
213.184	703.000	3782.249	14938.490	22.725	131.039	10281.744
214.262	706.300	3766.793	14864.988	23.692	127.124	10248.741
215.377	709.600	4000.042	14841.935	23.042	136.262	10251.373
216.459	712.900	3974.507	14792.454	23.053	135.193	10261.370
217.575	716.100	3990.308	14842.445	23.769	134.942	10311.211
218.660	719.400	3800.570	14995.677	22.990	137.416	10314.706
219.735	722.400	3832.081	14960.231	22.983	133.975	10312.031
220.811	725.700	3793.530	15020.093	22.819	135.086	10330.200
221.887	729.000	3984.966	14907.732	23.661	137.337	10325.456
223.004	732.300	4003.029	14819.837	23.717	136.584	10351.525
224.079	735.600	3932.674	14867.956	24.370	137.285	10374.988
225.155	738.900	3862.561	14995.014	25.680	140.338	10373.627
226.229	741.800	3821.886	15122.099	22.727	138.716	10375.105
227.307	745.100	3857.174	15035.720	24.038	143.368	10367.350
228.380	748.400	4026.375	14992.531	23.393	139.944	10361.095
229.456	751.700	4013.080	14990.187	24.057	140.871	10369.224
230.530	755.000	4033.659	14888.971	25.729	143.420	10388.575
231.608	758.000	3888.452	15063.677	23.409	143.801	10397.069
232.683	761.300	3859.290	15118.685	24.513	146.450	10403.405
233.761	764.600	3889.742	15148.094	25.145	143.740	10403.102
234.834	767.900	3905.317	15246.203	25.821	144.530	10399.502
235.907	770.800	4072.292	15003.688	25.290	147.983	10415.470
236.982	774.100	4049.937	15115.145	24.708	150.543	10413.207
238.057	777.500	4071.955	15045.706	25.127	151.753	10419.140
239.132	780.800	3915.615	15156.411	26.559	148.434	10420.147
240.208	784.000	3849.320	15251.590	24.638	148.423	10417.406
241.282	787.000	3910.631	15145.699	27.406	148.951	10412.168
242.356	790.300	3999.361	15192.187	25.669	150.315	10419.210
243.463	793.600	4065.411	15008.235	25.012	152.981	10419.554
244.537	796.900	4067.610	15037.974	26.081	151.687	10431.378
