Wed, Oct 11, 2017	2:46 PM
 Notes: GUA_1.67e-9_30s_0.03L_101117
 waiting time: 50.000
 time(s)	 temp (K)	 MS1=2.071	 MS2=27.907	 MS3=78.871	 MS4=125.586	 MS5=78.871	 MS6=78.871	 MS7=109.505	 MS8=125.586
0.000	98.800	658.519	2050.592	1.712	14.880
0.906	98.800	648.983	2026.864	1.776	14.862
1.803	98.800	652.380	2030.596	2.360	14.849
2.667	98.800	659.980	2043.663	1.571	15.692
3.543	98.800	660.003	2021.247	1.983	15.410
4.452	98.800	654.891	2023.476	1.853	14.945
5.322	98.800	633.674	2016.687	1.926	14.952
6.198	98.800	665.636	2016.840	1.650	15.276
7.067	98.800	648.484	2010.638	1.865	14.865
7.961	98.900	633.240	2002.856	1.721	14.392
8.824	98.900	619.559	1952.521	1.975	16.031
9.732	98.900	627.181	1907.154	1.982	15.136
10.636	98.900	585.356	1854.221	1.196	15.117
11.543	99.000	577.278	1858.488	1.556	14.559
12.411	99.200	548.592	2017.184	1.700	15.402
13.274	99.700	554.887	2246.198	1.582	14.926
14.155	100.700	554.938	2110.963	1.889	15.454
15.037	102.200	556.724	2107.982	1.851	15.012
15.929	104.400	542.210	2189.789	1.529	14.994
16.800	107.200	545.785	2219.210	1.453	14.880
17.697	110.600	567.077	2180.083	1.652	14.353
18.561	114.300	564.049	2122.566	1.339	14.824
19.423	118.000	558.585	2088.763	1.492	14.693
20.320	121.800	553.070	2052.693	1.678	15.993
21.188	125.500	565.834	2033.754	1.513	15.424
22.054	129.000	562.746	2027.883	1.580	15.710
22.922	132.500	555.616	2032.048	1.561	15.132
23.821	135.900	549.394	2013.733	1.710	15.495
24.695	139.300	567.091	1997.417	1.763	14.986
25.601	142.500	567.817	1985.942	1.585	14.938
26.466	145.800	544.684	1966.697	1.548	15.169
27.348	149.000	548.555	1951.859	1.576	15.393
28.213	152.100	562.343	1934.881	1.574	15.650
29.131	155.200	555.424	1919.317	1.342	15.135
30.035	158.600	546.851	1910.274	1.787	14.684
30.917	161.600	551.322	1872.575	1.429	15.272
31.794	164.500	532.424	1882.624	1.526	15.179
32.687	167.400	553.911	1874.039	1.522	16.329
33.581	170.300	554.112	1881.414	1.977	15.682
34.445	173.100	538.120	1847.688	2.110	16.626
35.307	175.900	537.670	1858.539	1.777	17.400
36.206	178.700	548.396	1837.817	2.288	20.807
37.069	181.500	544.320	1832.837	2.176	25.840
37.974	184.200	528.673	1827.169	2.376	34.346
38.835	186.900	520.992	1841.969	2.553	50.631
39.731	189.600	544.016	1841.803	3.272	78.570
40.593	192.300	542.249	1847.726	4.433	111.423
41.523	195.000	546.073	1866.550	5.932	150.012
42.387	197.700	542.608	1875.797	6.215	179.975
43.249	200.400	557.777	1876.548	5.614	117.928
44.111	203.100	561.117	1836.008	4.172	84.868
44.975	205.400	563.543	1827.437	4.141	80.274
45.840	208.100	565.268	1817.833	3.625	85.566
46.717	210.800	600.905	1828.073	4.057	90.922
47.584	213.400	600.036	1818.050	4.319	96.202
48.450	216.100	607.323	1819.005	4.491	105.289
49.315	218.700	609.259	1818.508	5.106	114.749
50.204	221.400	641.043	1820.240	5.142	122.378
51.110	224.000	645.008	1831.207	4.727	126.222
51.976	226.700	641.986	1829.500	5.475	122.075
52.880	229.300	632.869	1817.808	5.290	109.895
53.773	232.000	650.716	1811.045	4.834	97.343
54.640	234.600	642.354	1793.354	4.336	83.169
55.551	237.600	633.895	1788.756	3.663	68.575
56.413	239.900	611.343	1776.211	3.605	59.451
57.278	242.500	623.095	1779.535	2.477	53.559
58.141	245.200	609.175	1771.867	2.826	49.593
59.008	247.800	592.643	1771.180	2.769	42.989
59.874	250.500	595.345	1766.824	2.604	39.902
60.739	253.100	608.774	1784.196	2.530	40.585
61.638	255.800	606.954	1782.299	2.647	37.839
62.502	258.400	594.994	1781.496	2.713	36.393
63.379	261.000	586.171	1772.734	1.772	34.849
64.280	263.700	611.710	1789.546	2.497	34.802
65.145	266.300	609.462	1772.593	2.409	34.207
66.045	269.000	606.788	1769.206	2.535	34.986
66.901	271.600	603.374	1783.534	2.275	34.614
67.761	274.200	613.438	1782.808	2.555	32.035
68.645	276.800	623.966	1781.738	1.990	32.526
69.546	279.500	631.342	1777.994	2.312	32.391
70.406	282.100	620.925	1782.528	2.862	33.563
71.269	284.800	635.523	1792.208	2.055	32.718
72.132	287.100	648.205	1786.349	2.470	32.285
72.996	289.700	647.639	1784.973	2.431	32.476
73.860	292.400	646.836	1787.508	2.406	34.400
74.724	295.000	667.231	1790.361	2.145	33.651
75.590	297.700	680.676	1787.037	2.735	33.386
76.456	300.300	678.343	1785.546	2.273	32.054
77.345	302.900	687.107	1787.126	2.493	33.285
78.212	305.600	725.827	1790.412	2.054	34.173
79.078	308.200	744.365	1799.493	2.255	34.062
79.946	310.500	739.635	1802.333	2.510	33.793
80.811	313.100	777.391	1802.117	2.534	34.540
81.706	315.800	844.918	1820.865	2.508	33.045
82.585	318.400	885.201	1802.460	3.147	34.631
83.471	321.100	922.764	1811.159	3.086	33.642
84.333	323.700	961.807	1814.573	2.450	32.128
85.209	326.300	1030.008	1804.422	2.746	32.558
86.073	328.900	1066.498	1813.987	2.561	32.182
86.973	331.600	1039.272	1817.260	2.943	31.920
87.872	334.200	1040.496	1805.008	2.968	30.398
88.746	336.900	1050.554	1804.002	2.836	30.349
89.626	339.500	1020.913	1810.115	2.790	27.554
90.492	342.200	953.713	1819.158	2.495	26.419
91.391	344.800	897.262	1820.623	3.232	26.373
92.289	347.800	871.349	1823.552	2.835	26.318
93.159	350.400	840.523	1824.813	3.189	24.934
94.063	353.000	839.806	1825.641	2.972	25.708
94.927	355.700	791.128	1838.823	3.335	25.296
95.794	358.000	808.145	1844.070	3.413	25.232
96.659	360.600	822.434	1828.341	3.601	25.056
97.555	363.300	838.210	1836.518	3.903	24.405
98.453	366.200	837.634	1823.374	3.531	25.887
99.321	368.900	886.001	1819.081	3.994	24.455
100.189	371.200	947.043	1827.882	3.999	24.157
101.052	373.800	977.727	1821.998	3.945	24.478
101.967	376.800	979.693	1820.954	4.039	24.265
102.834	379.100	1004.006	1816.305	4.071	25.145
103.740	382.100	1041.901	1832.378	4.477	23.541
104.607	384.700	1062.446	1839.855	3.989	23.404
105.533	387.400	1027.654	1851.865	4.657	23.739
106.424	390.000	1032.363	1877.822	5.492	23.895
107.339	392.600	1039.987	1900.544	4.690	24.332
108.206	395.300	1053.173	1929.723	5.518	22.546
109.071	397.900	1045.941	1982.133	5.693	23.994
109.981	400.500	1047.757	2054.591	4.940	22.967
110.859	403.200	1014.273	2112.797	5.852	23.753
111.726	405.800	1024.652	2190.565	4.830	23.276
112.590	408.400	1003.889	2257.954	4.279	24.014
113.502	411.100	942.924	2328.094	4.498	23.780
114.399	414.000	903.448	2384.656	4.510	23.837
115.281	416.700	889.575	2459.890	4.092	23.727
116.147	419.300	855.451	2536.487	3.788	23.487
117.013	421.600	805.489	2575.066	3.663	23.477
117.878	424.300	777.962	2610.308	3.593	23.541
118.745	426.900	780.742	2653.752	3.161	23.301
119.611	429.500	760.171	2677.162	3.410	23.435
120.476	432.200	723.791	2703.488	3.172	23.751
121.338	434.800	714.782	2721.624	2.731	22.911
122.202	437.400	741.124	2784.632	2.577	23.178
123.080	440.100	732.902	2802.526	2.529	23.836
123.945	442.400	703.214	2805.532	2.235	23.348
124.811	445.000	710.557	2838.863	3.033	23.356
125.679	447.700	709.975	2845.563	2.323	23.243
126.557	450.300	719.898	2858.185	2.037	22.578
127.418	453.000	698.278	2874.704	1.849	24.199
128.282	455.600	700.391	2881.951	2.474	23.924
129.148	458.200	701.521	2883.021	2.536	23.825
130.013	460.900	698.160	2928.273	2.551	22.956
130.880	463.200	679.379	2929.980	2.561	23.237
131.746	465.800	700.035	2943.226	2.449	23.719
132.613	468.500	711.586	2941.341	2.269	23.560
133.478	471.100	688.350	2944.627	2.449	23.114
134.361	473.700	706.992	2960.560	2.284	23.804
135.228	476.400	723.179	2957.516	1.974	23.202
136.097	479.000	718.797	2946.334	2.574	22.896
136.962	481.700	707.794	2911.487	1.971	23.994
137.865	484.300	721.423	2886.867	2.380	23.509
138.751	486.900	743.582	2859.216	2.361	24.491
139.615	489.600	746.511	2804.883	2.132	23.446
140.518	492.200	734.938	2740.525	2.206	22.915
141.381	494.900	733.093	2667.125	2.537	22.855
142.247	497.500	758.010	2607.137	2.082	23.656
143.113	500.100	755.636	2547.861	2.115	23.560
143.979	502.800	736.163	2456.719	2.791	23.139
144.845	505.100	742.554	2388.324	2.832	24.379
145.713	507.700	757.025	2302.099	2.366	23.872
146.578	510.400	766.458	2234.392	2.490	22.941
147.444	513.000	749.770	2168.786	2.336	23.453
148.307	515.600	748.935	2100.328	2.153	23.490
149.172	518.300	766.864	2049.280	2.692	23.469
150.036	520.900	742.830	2024.075	2.403	23.415
150.902	523.200	746.384	1985.330	2.683	24.450
151.768	525.900	751.050	1968.951	2.541	23.635
152.651	528.500	765.450	1948.917	2.897	24.484
153.514	531.100	740.153	1918.171	2.553	23.870
154.382	533.800	733.791	1922.540	2.419	24.809
155.246	536.400	762.248	1888.750	2.963	24.422
156.113	539.000	742.782	1890.724	2.994	24.133
157.006	541.700	704.846	1879.796	2.799	24.723
157.906	544.300	719.005	1874.090	1.979	24.730
158.773	547.000	726.407	1868.422	2.544	24.033
159.640	549.600	731.607	1876.064	2.066	23.883
160.507	552.200	693.868	1862.194	2.299	24.469
161.371	554.900	692.543	1859.392	2.873	23.751
162.239	557.500	696.230	1873.071	2.381	24.349
163.136	560.200	700.521	1852.298	3.238	25.358
163.999	562.800	672.707	1846.032	3.067	23.561
164.862	565.100	662.828	1844.007	2.550	23.969
165.727	567.700	668.867	1853.037	3.016	24.321
166.593	570.400	672.289	1854.018	3.154	25.204
167.457	573.000	645.140	1858.781	2.730	25.443
168.320	575.600	645.078	1849.853	2.794	23.807
169.185	578.300	656.713	1848.401	2.818	24.793
170.093	580.900	654.271	1847.496	2.438	25.172
170.959	583.600	637.267	1848.401	2.757	25.652
171.846	586.200	648.998	1845.739	2.610	25.502
172.711	588.800	657.687	1860.144	2.847	24.295
173.619	591.500	664.311	1855.826	2.615	25.633
174.486	594.100	640.116	1854.412	2.595	25.721
175.367	596.700	651.200	1847.611	2.676	25.582
176.230	599.400	671.473	1852.247	2.868	25.466
177.098	602.000	673.071	1864.398	2.997	24.618
177.962	604.300	653.720	1862.857	2.700	26.346
178.825	607.000	660.480	1863.914	2.969	25.747
179.689	609.600	666.036	1847.331	2.893	26.474
180.555	612.300	664.054	1858.985	2.779	25.287
181.421	614.900	655.747	1859.074	2.905	25.573
182.316	617.500	655.206	1857.533	2.712	26.378
183.183	620.100	673.557	1857.877	2.867	25.544
184.083	622.800	682.867	1873.657	2.447	25.063
184.948	625.400	666.077	1875.173	2.822	27.107
185.814	628.100	658.947	1867.416	3.018	28.193
186.720	630.700	685.267	1870.015	3.030	27.074
187.580	633.300	678.283	1880.064	2.724	26.582
188.443	636.000	659.305	1872.345	3.241	26.689
189.556	639.300	674.535	1880.802	2.729	26.973
190.419	641.900	676.752	1898.047	3.024	26.359
191.320	644.600	673.750	1902.696	3.847	26.642
192.184	647.200	697.471	1901.601	3.235	26.097
193.052	649.800	679.335	1900.748	3.223	26.267
193.919	652.400	665.822	1908.593	2.977	28.715
194.783	654.800	686.990	1901.550	2.742	28.000
195.680	657.700	699.949	1917.127	3.006	27.440
196.547	660.000	683.560	1905.728	3.105	27.695
197.424	662.700	678.393	1910.058	3.218	27.688
198.288	665.300	690.142	1927.087	3.102	27.503
199.182	668.000	709.551	1919.190	3.089	29.059
200.078	670.900	704.267	1916.426	3.070	28.810
200.944	673.200	683.681	1924.004	3.347	27.577
201.812	675.900	684.091	1941.517	3.358	27.895
202.679	678.500	696.239	1948.038	2.898	28.985
203.545	681.100	691.713	1926.450	3.232	28.123
204.439	683.800	682.291	1932.538	3.617	27.601
205.307	686.400	679.959	1941.632	2.639	29.630
206.171	689.100	690.638	1942.128	3.487	28.091
207.035	691.700	672.326	1941.950	2.914	29.067
207.903	694.300	643.439	1933.862	3.198	29.064
208.771	697.000	664.441	1937.136	2.816	29.608
209.654	699.700	651.859	1938.728	3.485	29.472
210.520	702.000	620.467	1927.074	2.998	28.829
211.386	704.600	617.733	1941.262	3.156	28.974
212.253	707.200	620.481	1939.683	3.356	30.115
213.120	709.900	621.013	1942.752	3.170	29.957
213.985	712.500	588.233	1942.217	3.485	29.514
214.853	715.100	583.320	1936.524	3.116	29.271
215.751	717.800	595.093	1971.257	3.582	29.632
216.620	720.400	585.642	1965.283	3.050	30.203
217.483	723.000	560.446	1951.248	3.327	30.306
218.350	725.600	561.912	1975.409	3.956	29.696
219.214	727.900	564.214	1975.460	3.477	30.472
220.082	730.600	557.349	1979.663	3.048	30.488
220.987	733.500	541.124	1995.048	3.613	29.659
221.852	735.800	541.526	1971.881	3.930	30.292
222.719	738.500	554.158	1984.897	3.562	30.823
223.603	741.100	559.231	1995.927	3.617	32.289
224.471	743.700	530.621	1987.674	3.507	31.882
225.339	746.400	536.348	1988.540	3.163	31.191
226.203	749.000	548.645	2000.003	3.674	30.980
227.071	751.700	556.129	2016.458	3.472	31.060
227.937	754.300	535.233	2004.817	3.556	32.263
228.803	757.000	540.111	2006.575	3.251	32.436
229.703	759.600	549.376	2005.174	3.701	31.889
230.571	762.200	558.798	2023.247	3.711	32.105
231.437	764.800	533.592	2012.319	3.419	32.613
232.306	767.400	544.166	2035.028	3.738	33.144
233.172	769.700	555.468	2037.524	3.781	33.309
234.071	772.700	558.384	2035.295	3.996	32.988
234.935	775.100	540.447	2026.762	3.682	33.141
235.804	777.700	537.663	2051.942	3.701	32.867
236.682	780.400	556.437	2049.140	3.349	33.632
237.581	783.000	556.513	2060.628	3.704	33.578
238.447	785.600	535.925	2077.975	3.767	33.208
239.314	788.300	535.918	2072.511	3.862	34.211
240.180	790.900	555.689	2094.023	3.732	36.146
241.044	793.500	549.848	2083.898	3.187	34.089
241.909	796.200	536.497	2097.806	3.793	36.681
