Fri, Jul 21, 2017	12:57 PM
 Notes: background
 waiting time: 25.000
 time(s)	 temp (K)	 MS1=1.942	 MS2=13.642	 MS3=17.577	 MS4=27.796	 MS5=43.737	 MS6=28.818	 MS7=30.708	 MS8=60.996
0.000	89.100	9943.624	270.813	635.814	1603.492	1012.533	143.334	87.727	82.492
0.743	89.100	9768.422	275.373	636.973	1575.943	1002.217	149.741	88.937	82.212
1.509	89.100	9946.120	275.004	626.275	1593.608	1004.980	147.117	88.873	82.123
2.260	89.100	9677.318	272.647	625.702	1585.062	1019.360	149.664	87.867	83.231
3.017	89.100	9871.943	270.253	623.613	1597.824	1007.744	147.792	88.848	82.900
3.775	89.100	9639.070	277.933	611.793	1570.530	1002.268	145.321	88.797	82.377
4.532	89.100	9753.915	276.965	609.705	1582.502	995.313	149.983	88.338	82.059
5.284	89.100	9338.019	264.470	621.588	1547.706	993.492	146.556	87.816	81.664
6.047	89.100	9815.979	269.017	610.634	1576.490	987.175	148.187	88.453	83.116
6.804	89.100	9390.849	268.049	613.628	1555.806	993.428	148.225	88.746	82.059
7.578	89.100	9695.340	268.330	612.761	1543.388	987.430	148.008	87.574	82.912
8.327	89.100	9385.131	268.190	597.121	1546.891	977.686	147.206	89.637	82.798
9.085	89.100	9621.226	272.354	603.298	1573.586	972.490	147.308	89.421	82.365
9.839	89.100	9486.437	269.450	612.214	1530.257	984.016	144.340	90.108	82.938
10.601	89.100	9644.827	264.853	607.336	1527.098	981.991	144.964	88.465	81.881
11.357	89.100	9330.199	266.432	603.591	1536.549	962.734	150.148	88.300	83.154
12.116	89.100	9577.209	268.610	598.879	1546.980	993.377	148.199	88.032	81.410
12.875	89.100	9395.702	260.599	596.637	1532.715	960.759	143.653	89.064	82.976
13.628	89.100	9497.759	264.827	590.549	1533.823	963.702	146.849	90.185	83.091
14.392	89.100	9321.512	268.559	589.568	1515.597	956.747	146.162	87.803	82.989
15.166	89.100	9533.829	267.578	590.205	1496.989	967.472	145.257	89.421	83.282
15.923	89.100	9193.804	258.854	596.892	1509.981	941.655	144.111	89.268	82.989
16.684	89.100	9269.573	258.153	591.886	1513.458	946.100	144.366	88.886	83.027
17.435	89.100	9063.153	265.146	581.837	1506.911	952.341	144.302	88.822	82.110
18.187	89.100	9152.385	257.529	577.634	1476.687	954.404	141.233	88.797	82.569
18.941	89.100	9011.533	261.681	569.088	1500.874	925.594	144.086	88.618	82.861
19.698	89.100	8980.978	253.288	564.286	1454.450	921.633	140.519	87.014	83.804
20.455	89.100	8958.422	256.561	562.503	1459.366	915.800	144.977	89.293	82.912
21.215	89.100	8832.063	253.543	558.670	1448.362	923.938	141.309	90.185	82.518
21.991	89.100	8891.708	247.531	569.534	1456.386	904.095	141.844	87.243	83.053
22.744	89.100	8672.679	249.378	552.569	1424.748	907.687	143.461	88.198	82.530
23.498	89.100	8750.066	251.174	552.836	1442.248	900.185	140.290	87.816	82.518
24.257	89.100	8605.864	249.913	552.531	1432.084	897.332	145.741	87.345	82.619
25.016	89.100	8740.475	253.555	546.506	1414.470	885.653	138.647	87.816	83.422
25.774	89.100	8596.388	253.568	550.646	1411.808	909.342	144.277	88.924	83.651
26.536	89.100	8675.953	252.384	546.927	1406.255	892.403	140.583	88.185	83.142
27.295	89.100	8510.468	248.257	544.507	1393.136	884.825	142.022	87.510	83.218
28.065	89.100	8567.986	250.983	535.438	1404.446	876.941	136.316	88.529	82.670
28.822	89.100	8425.923	247.582	545.602	1380.324	875.069	139.793	88.733	82.403
29.583	89.100	8523.536	239.596	536.623	1392.691	884.392	138.711	88.185	82.989
30.353	89.100	8327.331	244.411	528.000	1373.026	879.959	140.061	89.039	82.760
31.109	89.100	8457.726	242.793	525.542	1375.496	867.809	141.449	88.262	82.772
31.867	89.100	8242.353	243.366	521.352	1354.074	852.551	139.551	88.516	83.549
32.618	89.100	8384.899	243.468	525.402	1372.847	880.889	141.768	88.109	82.734
33.370	89.100	8011.365	245.659	523.262	1358.493	854.334	137.934	88.287	82.441
34.122	89.100	8314.467	244.754	518.435	1368.733	863.351	138.685	88.593	82.403
34.877	89.100	8147.683	240.984	522.702	1344.177	839.827	141.487	89.370	82.760
35.637	89.100	8255.917	241.290	517.646	1354.099	858.753	138.265	88.351	83.180
36.400	89.100	8097.922	243.404	517.353	1339.529	846.348	138.876	86.759	83.460
37.157	89.100	8208.550	241.965	515.213	1350.202	850.895	137.017	89.077	83.116
37.912	89.100	8052.516	242.194	514.729	1335.364	843.062	141.869	89.000	84.301
0.000	89.100	7883.070	236.068	503.941	1303.039	837.509	136.877	87.765	84.148
0.765	89.100	7957.044	234.158	507.380	1295.843	826.517	136.877	88.593	83.231
1.535	89.100	7830.061	236.425	508.807	1297.626	831.625	139.055	88.567	82.339
2.295	89.100	7942.639	227.306	505.024	1315.839	820.811	139.220	90.605	83.447
3.051	89.100	7666.793	238.934	503.355	1292.837	822.875	136.444	88.173	83.244
3.811	89.100	7859.674	232.744	500.426	1283.361	807.604	133.374	87.829	83.855
4.571	89.100	7669.608	232.808	495.166	1293.117	823.944	136.138	87.689	84.428
5.328	89.100	7868.029	231.012	488.874	1288.277	814.940	137.361	87.612	82.365
6.091	89.100	7658.731	236.909	494.020	1274.407	811.488	138.163	88.185	82.925
6.849	89.100	7786.643	230.018	489.816	1292.951	812.635	136.062	88.058	83.791
7.609	89.100	7716.885	229.560	496.223	1296.479	815.220	133.629	88.771	82.174
8.367	89.100	7844.288	228.885	487.014	1281.642	818.875	131.387	87.370	83.040
9.127	89.100	7494.749	230.795	495.777	1262.753	796.472	134.100	87.765	83.027
9.878	89.100	7751.490	229.687	485.002	1292.608	807.183	135.145	87.790	83.677
10.635	89.100	7556.877	230.095	486.059	1256.271	802.484	135.565	87.345	83.447
11.395	89.100	7718.350	223.344	481.156	1271.694	807.807	137.526	88.224	83.409
12.154	89.100	7501.576	226.197	477.144	1258.563	792.536	137.144	87.625	82.823
12.914	89.100	7597.073	231.496	471.578	1270.064	793.071	134.571	87.205	83.371
13.669	89.100	7526.501	229.522	476.876	1248.272	790.435	136.444	88.147	82.632
14.432	89.100	7564.748	227.840	470.954	1257.493	799.108	133.553	88.402	82.352
15.191	89.100	7469.098	226.057	477.309	1259.620	790.206	132.062	88.122	82.174
15.954	89.100	8057.674	235.342	512.500	1378.031	867.019	137.985	88.007	82.925
16.722	89.200	9102.662	247.926	571.024	1527.124	955.104	146.034	88.465	82.085
17.481	89.300	10056.660	259.376	621.359	1662.232	1106.859	151.880	89.077	82.874
18.240	89.400	11325.542	277.589	679.870	1864.487	1292.085	158.656	89.383	82.428
18.993	89.700	11954.353	291.192	716.602	2011.109	1582.642	161.917	90.440	83.536
19.751	90.100	12939.504	315.913	748.990	2235.054	1864.563	170.412	89.739	83.244
20.506	90.800	13035.142	357.727	766.669	2470.615	2325.139	178.627	92.044	84.173
21.263	91.800	13944.054	401.107	798.089	2729.559	2829.298	184.027	92.185	83.549
22.023	93.100	13805.112	448.245	810.686	2871.774	3173.475	191.847	92.427	83.702
22.781	94.800	14188.886	485.524	812.469	2857.395	2900.954	197.069	94.490	87.345
23.542	96.900	13991.675	512.360	829.778	2729.088	2459.190	199.183	94.770	104.208
24.307	99.300	14370.050	564.821	880.354	2661.381	2116.605	210.799	97.776	147.219
25.065	102.000	13949.428	558.122	932.255	2603.430	1939.072	215.193	99.979	208.799
25.822	104.400	14410.335	548.684	971.598	2617.096	1854.769	227.662	101.126	269.654
26.577	107.400	13532.641	566.643	1019.182	2535.035	1824.902	233.470	103.278	313.875
27.333	110.500	14316.926	586.754	1064.269	2522.617	1747.655	248.448	104.424	355.753
28.093	113.600	13863.827	611.704	1107.585	2488.535	1762.621	271.921	113.060	397.095
28.849	116.700	14216.716	624.479	1165.982	2508.416	1721.291	301.686	128.254	475.348
29.608	119.800	13747.734	653.110	1231.065	2500.418	1694.990	342.710	153.409	559.778
30.378	122.800	14200.082	709.762	1308.783	2553.962	1693.500	366.833	175.545	629.777
31.140	125.800	13836.265	745.233	1381.826	2518.873	1655.405	389.899	175.252	702.757
31.900	128.800	14179.079	754.454	1417.820	2528.476	1669.785	383.034	166.451	787.314
32.660	131.700	13689.121	752.569	1448.451	2488.280	1620.482	380.767	153.612	835.866
33.421	134.600	14036.431	735.044	1516.081	2488.395	1643.802	365.725	154.045	844.297
34.201	137.500	13884.409	734.191	1767.563	2500.278	1564.085	377.366	153.421	889.524
34.960	140.300	14016.307	705.037	2366.188	2432.010	1486.062	365.318	148.836	970.949
35.719	142.700	13988.657	723.008	3365.095	2477.390	1424.366	388.078	151.995	1093.142
36.478	145.500	13921.446	747.551	4837.582	2455.102	1434.734	409.895	164.642	1200.498
37.254	148.200	14172.813	778.832	6465.134	2486.828	1430.047	454.626	177.914	1451.979
38.018	150.800	13671.468	830.695	7276.803	2476.703	1440.694	497.853	191.045	1763.334
38.775	153.500	14060.770	897.396	7233.830	2526.502	1446.910	554.569	205.042	2373.461
39.545	156.100	13711.129	1050.806	6723.251	2550.256	1537.377	669.337	232.680	3413.048
40.301	158.700	14092.064	1264.282	6085.817	2687.886	1661.366	848.653	269.412	5054.904
41.058	161.200	13610.957	1621.985	5712.576	2833.349	1869.314	1121.493	330.025	7486.330
41.845	163.700	14140.144	2172.683	5534.431	3122.275	2197.558	1503.778	430.477	10946.327
42.604	166.200	13783.562	2900.126	5840.819	3421.314	2594.413	1982.809	539.157	14448.009
43.363	168.700	14093.962	3710.750	6315.073	3891.989	3127.140	2596.795	710.692	20828.193
44.125	171.200	13990.784	5148.007	7628.698	4516.891	3901.160	3489.378	906.069	25920.621
44.885	173.600	14408.501	5829.560	8064.336	4725.959	3996.072	3038.456	761.918	15915.720
45.644	176.100	13610.269	4433.161	6388.321	4213.215	3325.256	2020.177	483.334	6790.118
46.402	178.500	13732.629	3142.309	4904.970	3794.326	3005.953	1503.014	390.319	4364.130
47.161	180.600	13527.776	2849.728	4530.379	3789.881	3028.980	1605.504	415.512	5046.854
47.931	183.000	14078.856	3226.867	4695.850	4009.165	3312.061	1852.922	470.623	5343.206
48.688	185.400	13587.955	3318.149	4686.413	3988.799	3216.486	1687.488	416.531	3183.754
49.450	187.700	13413.249	2876.283	4192.977	3767.032	3060.694	1372.376	344.379	1623.870
50.205	190.100	13376.199	2453.166	3723.040	3577.679	2840.736	1124.588	286.899	728.256
50.966	192.500	13309.307	2083.274	3308.711	3363.592	2690.306	895.320	241.736	327.503
51.726	194.800	13402.207	1770.186	3028.560	3265.509	2549.670	754.403	205.705	180.677
52.486	197.200	13140.511	1567.269	2763.744	3118.887	2483.657	638.400	184.282	127.554
53.248	199.500	13556.356	1395.365	2594.629	3113.614	2401.315	564.401	164.502	108.704
54.009	201.900	13303.092	1284.787	2420.764	3013.429	2391.572	524.804	157.039	100.909
54.769	204.200	13277.874	1205.083	2303.398	3004.055	2316.516	473.807	145.958	97.878
55.528	206.500	13331.201	1141.299	2197.036	2967.578	2337.952	453.543	138.201	96.056
56.287	208.500	13751.720	1088.188	2105.957	2927.598	2261.367	437.546	137.641	92.974
57.048	210.900	13357.566	1055.404	2036.505	2897.145	2209.568	422.632	131.973	92.592
57.812	213.200	13662.922	999.364	1935.633	2896.445	2187.853	406.609	132.559	92.719
58.571	215.600	13288.419	986.169	1914.235	2864.069	2188.935	400.139	130.903	90.949
59.331	217.900	13666.399	954.162	1854.922	2831.069	2135.277	384.843	129.681	91.242
60.088	220.200	13266.067	931.759	1815.897	2802.233	2124.947	386.791	125.630	90.834
60.847	222.500	13681.606	909.610	1757.119	2798.807	2088.381	367.699	125.592	91.777
61.607	224.800	13068.894	884.137	1726.284	2769.692	2056.425	367.585	121.504	91.000
62.369	227.200	13695.858	868.127	1685.425	2782.186	2059.762	357.510	122.918	90.223
63.130	229.500	13289.706	849.940	1674.153	2720.580	2021.858	348.607	120.829	90.083
63.886	231.800	13465.673	827.549	1616.878	2733.444	2050.426	347.550	119.249	89.650
64.644	233.800	13182.809	825.384	1606.090	2704.481	1974.402	340.469	118.396	91.510
65.401	236.100	13614.269	810.074	1581.700	2714.326	1979.523	336.597	118.880	89.777
66.159	238.400	12899.015	785.735	1564.098	2681.619	1937.008	329.796	117.785	89.153
66.921	240.700	13526.948	786.461	1540.586	2689.516	1950.751	324.816	115.874	89.039
67.680	243.000	13202.601	764.503	1523.443	2682.409	1914.541	332.203	115.721	88.593
68.437	245.300	13523.394	752.926	1488.354	2648.364	1932.296	321.937	114.894	87.931
69.193	247.600	12999.786	742.724	1472.535	2656.605	1865.226	314.932	113.161	88.784
69.949	250.000	13290.559	736.190	1443.254	2627.400	1878.013	309.023	112.677	87.676
70.710	252.300	13199.048	715.532	1446.286	2625.477	1842.848	310.042	112.716	88.809
71.471	254.300	13192.794	705.546	1409.133	2604.959	1836.059	297.407	113.034	87.306
72.230	256.600	13354.725	712.386	1411.897	2603.265	1815.897	303.890	110.945	87.141
72.992	258.900	12893.717	698.006	1374.363	2604.997	1836.811	299.992	109.290	87.650
73.755	261.200	13437.665	677.106	1378.731	2563.259	1792.055	293.191	108.653	87.790
74.512	263.500	13115.204	684.812	1368.631	2586.720	1817.209	296.668	111.047	87.026
75.273	265.800	13404.843	675.412	1362.391	2531.253	1781.649	296.872	107.328	87.931
76.033	268.100	12947.936	666.675	1347.591	2572.710	1789.100	290.453	108.322	87.370
76.793	270.400	13419.758	652.486	1328.703	2578.747	1776.032	291.650	108.984	88.555
77.556	272.700	13059.838	658.765	1316.858	2494.215	1772.020	289.192	107.290	86.300
78.311	275.000	13308.543	642.679	1287.004	2565.718	1754.266	285.002	107.468	87.014
79.070	277.400	13039.766	651.684	1310.719	2520.427	1756.112	289.803	105.685	87.383
79.848	279.700	13496.584	630.898	1293.537	2518.223	1720.985	278.990	105.800	87.103
80.609	282.000	12980.350	639.062	1277.171	2523.802	1724.857	279.130	104.335	86.109
81.372	284.300	13360.011	629.968	1257.964	2480.014	1723.393	279.066	105.863	86.963
82.130	286.300	13048.503	619.295	1243.126	2499.488	1693.920	281.588	104.959	88.109
82.896	288.600	13400.003	629.000	1235.739	2502.456	1719.648	282.238	106.398	86.479
83.659	290.900	13096.290	620.683	1247.673	2473.977	1685.565	280.837	105.367	85.905
84.422	293.200	13418.930	611.590	1216.788	2476.206	1713.726	274.456	104.131	86.950
85.182	295.500	13051.916	606.622	1219.093	2471.340	1677.121	276.354	101.762	86.759
85.946	297.800	13357.018	605.502	1197.606	2474.856	1667.887	271.272	103.176	86.275
86.704	300.200	13080.038	602.330	1209.999	2478.588	1668.065	273.068	103.673	86.020
87.468	302.500	13184.248	600.713	1195.836	2443.409	1671.581	268.457	103.495	84.950
88.228	304.800	13374.161	600.369	1207.413	2471.009	1636.110	272.622	102.883	85.078
88.989	307.100	13041.587	592.625	1176.069	2461.100	1656.883	271.985	102.514	87.026
89.746	309.400	13335.022	591.453	1197.568	2480.880	1615.731	272.240	101.087	86.147
90.503	311.700	12943.109	588.307	1168.198	2461.508	1635.320	266.674	104.157	86.772
91.262	313.700	13392.311	579.507	1163.957	2470.258	1616.534	263.579	102.527	85.574
92.028	316.000	13049.560	573.202	1155.971	2448.861	1611.375	269.336	102.832	85.791
92.788	318.300	13470.347	579.812	1169.828	2494.088	1603.122	260.993	102.412	86.657
93.551	320.600	13043.931	569.661	1157.143	2459.980	1636.008	259.198	103.838	85.307
94.309	322.900	13402.067	569.891	1163.243	2506.913	1576.337	257.249	101.928	84.899
95.071	325.200	13043.447	565.560	1166.402	2476.881	1603.721	248.677	100.807	85.052
95.829	327.500	13244.479	568.095	1169.624	2517.752	1585.380	251.721	101.215	86.466
96.587	329.800	13080.535	556.148	1167.472	2506.175	1582.362	249.161	101.329	86.109
97.346	332.100	13415.669	549.831	1160.416	2504.048	1578.248	249.607	101.011	85.345
98.108	334.400	12932.232	541.565	1154.124	2503.500	1559.347	250.104	99.725	85.689
98.870	336.800	13434.112	547.665	1156.480	2520.554	1585.852	245.468	102.246	86.593
99.633	339.100	12970.925	540.240	1150.724	2511.473	1557.933	246.589	100.973	86.530
100.393	341.000	13371.385	533.108	1146.979	2510.874	1560.149	240.424	100.743	85.727
101.153	343.300	12986.718	528.739	1148.113	2499.781	1554.163	249.149	99.279	85.141
101.915	345.600	13229.997	532.293	1154.137	2472.538	1545.120	244.436	100.030	85.893
102.679	348.000	12983.955	532.713	1161.932	2485.032	1534.638	245.226	102.055	86.326
103.440	350.300	13334.806	528.077	1151.972	2470.194	1545.961	233.559	101.024	86.428
104.200	352.600	13135.595	512.920	1157.512	2451.930	1533.110	237.189	102.425	85.205
104.958	354.900	13129.430	518.448	1163.180	2410.180	1522.755	241.443	99.062	85.421
105.720	357.200	13151.324	517.098	1183.775	2445.575	1518.145	240.106	97.890	85.651
106.479	359.500	13080.981	518.321	1175.942	2420.891	1513.967	239.724	101.711	86.249
107.239	361.800	13324.527	508.628	1161.804	2416.828	1509.560	237.800	99.381	85.383
107.999	364.100	12850.196	507.597	1163.447	2391.980	1511.636	237.431	99.100	85.651
108.758	366.100	13355.859	503.101	1184.259	2425.922	1520.335	231.254	100.858	85.714
109.516	368.400	11255.160	494.962	1136.790	2327.470	1467.135	233.266	100.731	86.555
110.271	370.700	13014.522	499.203	1164.899	2400.921	1478.114	238.246	100.578	84.390
111.027	373.000	12961.882	494.924	1192.486	2386.758	1492.697	239.482	99.890	87.650
111.786	375.300	13309.244	496.465	1187.226	2386.401	1483.209	233.916	100.209	87.638
112.545	377.700	12969.779	489.473	1191.009	2394.884	1489.819	243.328	99.584	84.772
113.306	380.000	13336.066	490.517	1190.678	2414.727	1484.317	228.184	99.037	85.765
114.065	382.300	12825.781	493.192	1194.078	2401.456	1480.305	232.986	99.151	85.269
114.820	384.600	13306.250	488.976	1204.981	2412.422	1470.243	235.329	100.017	85.995
115.573	386.600	12976.911	491.472	1204.522	2397.787	1464.511	236.731	101.902	86.300
116.333	388.900	13240.365	486.199	1205.439	2395.304	1471.083	233.928	99.100	86.160
117.092	391.200	12938.116	486.632	1213.310	2376.390	1462.677	234.069	98.566	85.995
117.851	393.500	13136.537	489.969	1226.926	2399.532	1457.557	233.024	98.260	86.135
118.600	395.800	12822.304	488.084	1232.173	2376.976	1449.546	239.265	100.387	86.147
119.351	398.100	13186.299	482.378	1231.804	2383.777	1453.049	234.616	99.572	86.262
120.110	400.400	12794.831	478.774	1224.939	2379.498	1441.127	233.534	101.762	86.428
120.869	402.700	13299.984	488.377	1237.357	2413.008	1458.372	233.686	99.635	85.867
121.628	404.700	12952.687	484.620	1252.348	2380.211	1437.981	232.846	100.387	86.249
122.385	407.000	13298.201	478.163	1239.369	2399.596	1443.343	233.852	100.387	86.963
123.147	409.300	13006.562	476.902	1248.578	2377.269	1435.256	231.929	100.616	86.198
123.908	411.600	13330.475	474.507	1244.833	2402.462	1449.724	232.171	98.158	86.963
124.670	413.900	13038.390	483.436	1270.739	2381.752	1446.171	235.202	101.100	86.122
125.428	416.200	13291.744	476.048	1273.885	2420.051	1446.349	233.878	101.368	87.319
126.188	418.500	13065.672	480.888	1271.631	2402.767	1435.842	231.623	99.266	86.873
126.939	420.800	13037.919	476.698	1292.276	2420.178	1449.737	231.394	101.406	86.530
127.691	423.100	13034.251	470.241	1297.397	2430.062	1422.672	236.247	100.450	87.396
128.448	425.100	13195.405	474.444	1291.487	2398.450	1437.345	231.076	100.858	86.046
129.205	427.400	12982.324	478.952	1303.293	2423.388	1444.604	232.604	102.043	87.154
129.962	429.700	13201.379	475.017	1290.188	2429.094	1445.611	229.445	100.807	86.555
130.724	432.000	13283.350	468.776	1313.635	2464.832	1432.174	246.219	100.769	86.402
131.485	434.300	12825.946	477.080	1311.343	2438.315	1442.516	237.800	102.603	87.128
132.244	436.600	13382.593	485.091	1312.158	2447.460	1430.925	235.495	100.400	86.033
133.008	438.900	12968.467	481.117	1316.781	2417.096	1427.690	233.954	101.915	87.778
133.766	441.200	13408.269	479.462	1325.570	2464.310	1417.412	236.463	99.368	85.995
134.558	443.500	13056.884	483.920	1329.925	2455.229	1446.680	237.482	101.418	86.377
135.324	445.800	13461.610	484.722	1338.803	2443.155	1442.452	235.966	102.819	86.530
136.082	448.100	13109.638	483.996	1361.219	2470.716	1433.766	236.539	100.934	87.014
136.840	450.400	13417.592	484.403	1340.216	2486.408	1435.689	236.667	102.234	85.753
137.599	452.700	13046.236	493.026	1361.079	2468.666	1444.350	243.086	101.444	87.064
138.362	455.100	13473.977	473.616	1374.834	2507.117	1445.241	237.609	104.386	86.364
139.120	457.400	13106.377	485.499	1373.930	2445.244	1419.399	243.162	100.922	86.568
139.875	459.400	13324.655	485.117	1356.404	2485.274	1427.576	239.049	101.495	86.619
140.634	461.700	13067.837	489.676	1392.831	2474.155	1423.640	240.806	102.399	86.759
141.398	464.000	13443.205	491.600	1364.734	2486.255	1454.348	239.991	102.896	86.033
142.155	466.300	13163.131	491.510	1388.589	2469.252	1423.054	240.475	103.813	86.224
142.916	468.600	13442.225	498.452	1371.905	2487.592	1440.669	237.049	102.819	85.880
143.677	470.900	13084.012	485.295	1394.385	2478.231	1438.593	245.570	104.017	86.759
144.437	473.200	13429.577	493.166	1382.540	2466.908	1436.109	239.545	102.705	86.389
145.195	475.600	13089.183	496.350	1406.994	2506.595	1432.084	244.780	104.386	86.122
145.959	477.900	13307.792	503.661	1401.071	2519.064	1449.941	244.958	104.666	86.606
146.714	480.200	13331.048	497.573	1397.276	2509.193	1446.871	242.309	105.023	85.218
147.468	482.200	13152.178	506.043	1403.517	2514.288	1453.252	248.665	104.513	86.339
148.254	484.800	13544.295	497.344	1425.321	2526.604	1440.987	250.142	103.647	87.115
149.010	486.800	13162.303	501.649	1401.517	2525.954	1477.897	245.328	105.087	85.001
149.768	489.100	13501.118	504.285	1434.033	2543.200	1455.201	246.971	106.959	86.160
150.524	491.400	13100.136	499.993	1403.045	2520.554	1468.816	248.423	105.889	86.593
151.280	493.700	13233.653	501.241	1414.037	2553.847	1461.951	246.232	104.412	85.969
152.032	496.000	13140.524	507.062	1423.742	2529.954	1491.959	250.677	105.596	87.281
152.834	498.300	13498.418	519.454	1432.619	2565.577	1499.881	247.136	104.195	87.115
153.595	500.600	13118.006	515.200	1449.584	2547.810	1512.642	251.390	105.214	85.663
154.391	502.900	13542.601	508.577	1438.211	2563.527	1549.757	252.511	106.220	85.765
155.159	505.300	13173.460	512.182	1444.426	2541.136	1541.427	251.543	107.073	86.084
155.923	507.600	13447.358	511.609	1430.149	2578.976	1588.730	249.365	105.863	86.007
156.685	509.900	12993.303	520.167	1447.177	2585.969	1586.960	248.155	106.908	86.937
157.445	512.200	13456.388	524.128	1452.119	2565.208	1636.046	248.550	107.748	86.313
158.201	514.500	13205.314	514.971	1459.328	2592.948	1661.149	252.651	107.456	86.886
158.960	516.800	13163.055	530.981	1458.385	2584.542	1721.355	250.027	107.978	86.288
159.719	519.100	13386.095	521.123	1471.708	2614.333	1743.172	255.338	106.628	86.619
160.501	521.400	13150.063	520.180	1475.223	2617.249	1816.394	253.632	107.073	86.262
161.271	523.700	13587.242	532.675	1478.356	2679.938	1871.326	254.714	105.978	87.166
162.032	526.000	13055.368	536.063	1490.672	2592.706	1934.385	251.658	105.749	86.504
162.790	528.300	13558.445	537.744	1483.591	2702.571	2007.059	258.777	108.780	86.555
163.549	530.600	13259.928	546.608	1488.914	2691.974	2121.661	261.618	107.557	87.052
164.305	533.000	13362.800	540.202	1479.044	2742.334	2192.705	260.280	106.691	86.657
165.065	534.900	13000.436	535.668	1500.250	2739.315	2335.277	258.510	108.500	87.294
165.822	537.200	13690.114	546.596	1501.409	2723.662	2385.510	258.624	110.309	86.784
166.578	539.600	13100.748	564.006	1510.885	2769.348	2539.582	261.528	110.576	86.415
167.336	541.900	13784.224	561.854	1507.994	2833.400	2684.447	256.994	110.627	86.822
168.099	544.200	13385.611	567.522	1527.098	2833.718	2804.743	265.375	110.589	86.912
168.857	546.500	13823.414	570.133	1519.979	2896.878	2916.046	265.158	109.149	86.262
169.611	548.800	13436.086	587.556	1552.291	2873.061	2950.409	267.667	110.359	87.243
170.369	551.100	13373.104	583.238	1546.572	2910.621	3022.332	272.571	110.729	87.523
171.130	553.400	13412.409	586.728	1543.630	2935.036	3079.672	271.476	110.729	86.351
171.888	555.400	13795.381	595.758	1544.025	2957.287	3197.764	274.736	110.525	87.103
172.647	557.700	13463.189	598.993	1574.083	2953.695	3256.352	278.086	113.620	87.281
173.410	560.000	13665.851	611.271	1572.669	2984.963	3469.369	274.978	112.423	87.498
174.165	562.300	13157.769	605.209	1594.678	3012.194	3623.365	278.493	111.468	86.581
174.919	564.600	9369.198	604.164	1485.921	2886.638	3746.348	278.952	111.162	86.861
175.677	566.900	13386.961	620.773	1624.914	3087.453	4752.668	285.295	111.378	87.498
176.436	569.300	14231.974	601.643	1677.962	3344.692	5798.980	283.537	110.525	86.377
177.196	571.600	14281.519	597.732	1643.662	3237.387	4802.773	275.233	108.691	86.784
177.955	573.900	13953.147	593.198	1613.159	2979.869	3180.952	258.637	108.551	87.408
178.728	576.200	13858.783	584.245	1583.241	2787.854	2009.415	256.103	109.404	86.020
179.505	578.500	13316.223	592.001	1606.141	2739.570	1765.728	264.114	109.837	86.440
180.264	580.800	13645.129	574.310	1602.358	2727.534	1616.406	256.765	109.697	86.046
181.020	582.800	13365.258	574.030	1592.767	2655.752	1516.323	257.797	108.564	85.434
181.779	585.100	13412.765	580.666	1579.267	2713.524	1441.535	258.777	107.035	86.058
182.556	587.400	13390.808	587.874	1593.825	2686.090	1424.812	259.299	109.723	86.173
183.315	589.700	13770.570	578.348	1598.550	2658.821	1417.871	255.542	108.258	86.593
184.097	592.000	13257.062	580.156	1596.767	2680.473	1408.369	262.777	109.022	86.326
184.858	594.300	13587.382	573.915	1592.029	2640.213	1385.202	253.746	109.633	85.969
185.617	596.500	12897.461	553.142	1524.678	2469.341	1336.816	239.825	107.061	85.536
186.380	598.500	12798.525	509.214	1445.292	2412.524	1311.827	231.216	105.838	86.810
187.142	600.200	12245.139	480.634	1398.664	2320.108	1277.209	231.751	102.374	85.689
187.897	601.400	12454.182	453.721	1346.687	2282.357	1092.531	173.761	94.477	84.759
188.654	602.000	6837.000	324.548	759.294	1340.573	789.238	168.896	95.738	84.721
189.416	600.900	6832.848	319.734	717.557	1336.141	794.256	168.896	92.134	84.543
190.176	599.400	6714.145	312.143	695.599	1320.755	776.450	167.215	94.057	84.199
190.938	597.500	6845.598	299.508	670.050	1319.673	778.857	156.707	92.299	83.970
191.696	595.300	6815.055	293.803	658.804	1316.361	765.612	160.490	93.764	83.409
192.457	593.300	6665.122	286.415	638.527	1283.527	767.318	158.516	91.140	83.715
