Thu, Oct 12, 2017	3:00 PM
 Notes: GUA_9.97E-10_30sec_0.005 L_more masses_101217
 waiting time: 50.000
 time(s)	 temp (K)	 MS1=28.936	 MS2=30.937	 MS3=42.078	 MS4=95.042	 MS5=109.505	 MS6=125.586	 MS7=109.505	 MS8=125.586
0.000	99.200	304.129	34.421	50.221	0.963	1.103	9.515
1.748	99.200	305.421	33.642	53.171	1.175	0.640	9.296
3.065	99.200	298.846	32.476	53.558	1.111	0.858	9.187
4.362	99.200	298.134	30.846	52.414	1.008	0.442	9.052
5.648	99.200	299.766	31.579	53.663	1.137	0.918	9.520
6.952	99.200	296.371	33.203	50.233	0.711	0.663	9.383
8.266	99.100	299.317	32.870	51.020	1.202	0.775	10.207
9.597	99.200	297.651	32.315	52.101	1.237	0.666	10.422
10.892	99.400	301.657	32.886	52.175	1.222	0.716	10.214
12.182	100.200	333.872	33.277	52.212	1.350	1.038	9.793
13.555	102.300	331.657	32.250	51.350	1.370	0.616	9.644
14.847	105.400	331.638	32.938	51.587	1.430	1.047	9.618
16.168	110.200	349.579	34.378	53.385	1.500	0.639	9.925
17.460	115.700	344.039	31.746	50.663	1.214	0.671	10.859
18.761	121.400	326.862	31.852	51.506	1.533	0.740	10.344
20.083	126.800	332.298	32.978	49.748	1.353	0.806	10.572
21.371	132.100	323.583	31.791	48.523	1.229	1.065	9.487
22.693	137.100	327.920	33.065	51.979	1.352	1.051	9.857
24.015	142.100	325.371	32.040	50.038	1.134	0.898	10.556
25.332	147.000	322.337	31.465	51.310	1.113	0.967	10.426
26.641	151.700	321.815	32.464	53.205	1.578	1.056	11.317
27.964	156.300	315.096	33.387	51.517	1.438	0.771	10.720
29.259	160.500	313.209	33.060	52.747	1.752	0.700	11.167
30.575	164.900	309.733	33.160	49.491	1.435	0.974	11.734
31.868	169.200	315.156	34.107	52.134	1.543	1.007	12.068
33.208	173.400	317.807	34.361	54.152	1.194	0.861	12.120
34.517	177.600	321.056	33.247	50.768	1.260	0.857	13.371
35.824	181.700	316.186	35.162	52.703	1.587	0.841	16.208
37.116	185.900	317.580	36.190	53.214	1.762	1.285	19.641
38.408	189.900	319.133	34.704	51.523	1.831	1.159	22.794
39.701	193.600	327.817	36.996	53.875	1.882	1.763	28.653
41.009	197.700	325.875	37.715	53.281	1.721	1.104	33.148
42.300	201.700	324.666	39.269	52.890	2.298	1.477	41.861
43.629	205.700	331.386	38.111	57.587	2.273	1.895	52.022
44.920	209.700	338.616	41.550	56.453	1.898	2.070	62.254
46.245	213.700	347.015	42.040	58.134	2.773	1.955	76.547
47.553	217.700	354.322	43.848	58.497	2.769	2.847	91.156
48.847	221.300	365.507	48.703	60.069	2.791	2.996	97.911
50.163	225.300	365.729	47.958	61.142	2.517	3.150	92.100
51.470	229.300	370.180	47.372	60.587	2.995	2.223	79.717
52.763	233.200	353.821	44.866	56.355	2.657	2.252	65.939
54.059	237.200	348.307	44.164	56.700	2.475	1.843	56.697
55.390	241.200	349.275	43.230	56.854	2.544	1.771	47.220
56.702	245.200	345.266	39.983	55.506	2.121	1.514	40.357
57.995	249.100	333.900	42.444	55.808	2.468	1.115	39.818
59.287	252.700	338.273	40.075	54.756	2.272	1.434	37.025
60.581	256.700	329.069	43.231	56.268	2.442	1.462	34.651
61.910	260.700	330.334	38.570	53.935	2.814	1.319	34.154
63.227	264.700	334.180	40.565	56.649	2.234	1.158	31.177
64.553	268.600	338.830	41.481	56.368	2.105	1.221	32.150
65.857	272.500	337.407	40.653	55.209	2.438	1.087	32.154
67.199	276.500	333.777	42.071	56.170	2.180	1.033	30.701
68.545	280.800	336.015	40.399	56.084	2.667	1.462	32.586
69.837	284.400	333.039	42.058	55.970	2.801	1.380	32.268
71.132	288.400	339.276	43.369	56.972	2.027	1.505	33.099
72.454	292.400	333.136	42.138	57.351	2.440	1.084	33.015
73.747	296.300	337.883	42.346	58.095	2.502	1.242	36.183
75.036	300.300	338.722	43.789	56.079	2.773	1.476	35.374
76.357	304.200	339.864	42.541	57.262	2.454	1.827	36.850
77.662	307.900	345.168	43.552	57.254	3.044	1.412	37.537
78.983	311.800	347.016	45.027	56.457	2.758	1.686	38.736
80.296	315.700	348.133	44.540	57.434	2.930	1.664	39.619
81.584	319.700	348.934	47.543	60.416	2.581	1.585	39.786
82.900	323.700	353.429	48.128	57.126	3.117	1.051	39.229
84.192	327.600	353.027	47.888	58.086	3.131	1.828	37.676
85.483	331.600	358.542	47.870	57.799	3.133	1.491	34.370
86.776	335.200	347.577	47.146	57.502	3.421	1.432	31.431
88.069	339.200	350.110	49.071	58.000	2.533	1.909	29.369
89.361	343.100	349.320	48.930	57.128	3.422	1.831	28.015
90.655	347.100	353.359	47.682	60.541	3.443	1.525	26.883
91.948	350.700	345.129	47.727	57.504	3.639	1.547	26.917
93.298	355.000	352.855	48.251	58.003	3.565	1.219	27.363
94.605	358.600	348.108	47.479	57.701	3.782	1.358	26.701
95.922	362.600	345.840	48.253	56.596	4.245	1.262	25.721
97.212	366.600	350.111	49.811	59.502	4.033	1.623	25.237
98.508	370.500	354.142	48.889	59.177	3.637	1.560	26.869
99.835	374.500	346.680	50.354	59.952	3.761	1.258	26.954
101.127	378.400	349.220	48.122	61.193	4.179	1.264	26.085
102.417	382.100	346.825	50.014	61.534	4.120	1.207	25.423
103.710	386.000	354.480	50.315	61.919	4.016	1.442	27.140
105.031	390.000	359.707	51.004	62.010	3.910	1.334	25.609
106.353	393.900	358.740	47.576	60.757	3.996	1.082	25.894
107.665	397.900	360.572	49.010	62.862	4.476	1.366	26.242
108.961	401.800	363.553	47.615	61.607	3.993	1.294	26.716
110.275	405.800	376.450	46.934	62.311	4.382	1.468	26.183
111.602	409.700	383.285	47.133	64.094	4.099	1.096	26.651
112.925	413.700	384.706	46.711	63.170	3.746	1.300	26.422
114.218	417.600	386.499	46.991	63.075	3.912	1.190	27.075
115.537	421.600	397.034	46.627	62.521	3.484	1.225	26.917
116.828	425.600	395.483	47.550	62.424	4.087	1.188	26.148
118.133	429.200	399.428	49.305	66.484	3.446	1.344	27.569
119.428	433.100	394.562	48.583	64.792	3.641	1.301	26.735
120.733	437.100	406.264	46.596	65.353	3.157	1.251	26.430
122.024	441.000	404.996	46.650	65.475	3.581	1.609	28.012
123.338	445.000	409.206	47.492	64.633	4.074	1.443	26.478
124.631	448.700	407.735	49.876	64.011	3.791	1.234	27.998
125.941	452.600	409.132	46.657	65.875	3.562	1.365	29.119
127.232	456.600	416.068	47.486	66.928	3.676	1.255	28.402
128.526	460.500	413.370	47.452	65.471	4.045	1.450	27.517
129.843	464.500	418.348	46.862	68.600	3.843	1.346	28.135
131.136	468.500	422.561	47.917	69.198	3.589	1.520	27.601
132.429	472.100	414.995	47.701	69.763	3.590	1.634	28.186
133.721	476.000	416.780	50.525	69.432	3.817	1.344	28.414
135.053	480.000	418.158	49.426	69.506	3.462	1.632	27.453
136.347	484.000	406.404	49.153	68.400	3.921	1.211	29.995
137.665	487.900	412.571	51.565	68.988	4.077	1.381	29.313
138.977	491.900	409.067	50.349	68.938	3.948	1.253	29.252
140.270	495.800	403.711	50.619	71.895	3.326	1.359	28.842
141.564	499.500	398.543	49.599	70.715	3.669	1.539	30.283
142.855	503.400	390.105	49.967	71.444	3.383	1.646	29.846
144.146	507.300	384.137	50.017	72.701	3.949	1.726	30.914
145.443	511.300	376.134	50.411	72.205	3.236	1.527	30.776
146.735	514.900	371.421	52.622	74.365	4.250	1.679	30.099
148.031	518.900	368.183	53.155	73.476	4.315	1.539	30.968
149.324	522.900	364.123	51.112	74.504	3.972	1.968	31.186
150.639	526.800	369.015	51.119	73.760	4.123	1.523	31.729
151.932	530.800	364.129	50.531	75.503	3.649	1.059	33.028
153.238	534.700	366.087	52.692	78.229	4.416	1.145	31.968
154.532	538.400	368.275	51.043	76.882	4.633	1.727	31.544
155.826	542.300	363.111	55.523	74.908	3.826	2.041	32.168
157.118	546.300	371.415	55.723	79.107	4.152	1.275	33.174
158.439	550.200	366.450	54.331	79.488	4.948	1.723	33.376
159.733	554.200	370.822	55.837	80.201	4.051	1.725	33.014
161.041	557.800	370.052	55.271	79.897	3.935	1.181	33.736
162.336	561.800	359.037	56.417	80.761	4.336	1.170	34.002
163.665	565.700	373.256	54.377	79.319	4.564	1.318	34.322
164.983	569.700	371.293	55.496	80.899	4.686	1.542	32.660
166.274	573.600	370.222	56.992	81.680	4.667	1.431	34.210
167.569	577.600	374.647	57.977	81.587	4.939	1.454	34.471
168.894	581.500	373.564	57.199	80.992	4.726	1.463	34.938
170.185	585.500	375.792	58.433	84.693	4.802	1.557	35.819
171.472	589.100	376.367	58.678	84.330	4.654	1.708	36.924
172.763	593.100	378.355	59.123	85.973	4.707	1.684	35.515
174.055	597.000	379.250	60.367	85.506	4.306	1.145	36.262
175.375	601.000	375.276	61.176	83.633	4.584	1.654	35.366
176.669	605.000	383.517	61.064	86.108	4.865	1.375	37.580
177.962	608.600	378.074	63.162	87.643	5.138	1.902	37.772
179.253	612.500	379.588	61.960	88.943	4.769	1.565	37.026
180.548	616.500	387.288	60.787	90.045	4.879	1.788	37.102
181.843	620.500	382.927	61.824	91.587	5.032	1.758	37.009
183.136	624.100	390.729	62.092	92.580	5.136	1.979	37.949
184.472	628.400	390.411	61.878	88.004	5.497	1.875	37.966
185.764	632.000	390.248	63.356	91.326	5.370	1.658	39.105
187.107	635.900	391.533	62.924	94.697	5.074	2.499	39.103
188.399	639.900	396.229	66.165	92.286	5.270	1.878	40.078
189.690	643.900	399.104	65.381	95.267	4.768	2.107	40.429
190.994	647.800	396.779	66.715	92.129	5.319	1.549	41.566
192.287	651.800	402.733	63.659	97.244	5.580	1.473	40.564
193.579	655.400	408.556	67.756	96.757	6.019	1.569	41.662
194.898	659.300	404.695	66.436	97.413	5.474	2.146	41.882
196.193	663.300	405.212	63.992	97.875	5.363	2.089	41.617
197.486	667.300	407.146	68.093	98.595	5.761	1.836	42.391
198.779	671.200	402.986	66.304	100.038	4.945	1.678	42.821
200.071	674.800	411.066	67.834	102.156	6.131	1.400	43.431
201.361	678.800	404.495	68.202	98.072	6.394	1.843	44.515
202.651	682.700	411.486	66.702	102.104	5.786	2.103	45.325
203.943	686.700	412.356	69.392	103.569	5.886	1.969	46.377
205.235	690.300	412.262	68.420	103.782	5.688	2.047	44.854
206.522	694.300	417.154	68.322	106.828	5.455	1.513	47.899
207.815	698.300	420.757	68.190	104.485	5.755	1.841	46.543
209.106	701.900	422.387	69.202	109.223	5.659	1.802	48.640
210.402	705.900	420.045	68.354	107.179	6.276	1.730	49.965
211.716	709.800	418.866	69.455	108.212	5.638	1.892	48.096
213.007	713.800	427.664	69.365	109.574	6.145	1.838	48.828
214.312	717.800	422.889	70.365	110.176	6.209	2.086	49.334
215.622	721.700	431.250	71.205	113.739	6.398	2.241	50.351
216.917	725.600	426.674	71.274	113.148	6.725	1.979	49.537
218.212	729.200	434.125	74.437	111.242	5.860	1.995	50.423
219.506	733.200	434.167	74.985	113.497	6.923	1.981	51.093
220.800	737.100	438.386	72.690	113.270	6.142	2.229	50.781
222.110	741.100	435.775	75.761	118.408	6.150	2.075	52.976
223.405	744.700	435.532	72.219	118.320	6.604	2.670	54.731
224.699	748.700	438.868	74.839	119.861	6.060	2.117	53.999
225.993	752.600	444.493	76.123	118.245	5.957	1.777	54.726
227.280	756.600	443.004	76.846	120.427	6.622	2.228	54.114
228.572	760.200	449.324	74.913	122.516	7.127	2.044	57.712
229.868	764.100	450.401	75.637	123.102	6.561	2.136	54.782
231.161	768.100	450.991	77.104	123.784	6.913	1.993	57.179
232.457	772.100	461.811	76.884	126.503	6.804	2.419	57.670
233.771	776.000	455.198	78.587	128.561	7.013	2.020	57.156
235.055	779.600	457.802	78.942	126.944	6.782	1.979	58.230
236.345	783.600	456.995	78.489	126.731	7.254	2.041	62.303
237.668	787.600	458.443	79.079	127.860	7.515	2.471	59.592
238.989	791.500	468.907	80.253	127.832	7.583	2.259	61.119
240.284	795.500	468.825	80.977	132.935	7.401	2.430	60.527
241.574	799.400	473.905	81.901	133.113	7.496	2.392	62.475
242.866	803.000	471.014	80.594	131.226	7.676	3.000	63.058
244.162	807.000	484.095	80.668	138.242	7.566	2.331	64.372
