Thu, Oct 12, 2017	1:35 PM
 Notes: GUA_1.89E-9_30sec_0.035 L_101217
 waiting time: 50.000
 time(s)	 temp (K)	 MS1=1.933	 MS2=27.907	 MS3=78.871	 MS4=125.586	 MS5=17.701	 MS6=78.871	 MS7=109.505	 MS8=125.586
0.000	99.100	4177.749	9895.620	4.996	20.525
0.903	99.100	4263.377	9942.580	5.331	20.779
1.768	99.100	4179.472	9993.869	5.389	19.995
2.659	99.100	4161.571	10000.862	5.984	20.788
3.522	99.100	4252.828	9919.667	5.632	20.714
4.407	99.100	4262.362	9992.978	5.829	20.871
5.291	99.100	4168.209	10054.304	5.963	21.109
6.156	99.100	4180.228	10081.611	6.254	20.867
7.020	99.200	4270.096	10329.551	5.872	22.019
7.913	99.400	4279.396	11395.146	5.650	20.816
8.777	99.900	4223.791	13481.377	5.689	22.751
9.641	100.800	4244.725	13253.700	5.762	21.229
10.507	102.100	4363.540	12992.526	5.396	21.628
11.371	104.100	4371.004	13617.211	6.552	21.600
12.259	106.700	4320.335	14013.072	5.346	21.276
13.140	110.000	4303.140	13795.687	5.396	22.337
14.003	113.600	4436.676	13382.058	5.925	23.502
14.865	117.400	4375.081	12975.650	5.324	21.866
15.729	121.200	4307.440	12850.515	6.200	21.550
16.593	125.000	4284.757	12761.538	6.198	23.355
17.469	128.600	4362.961	12616.877	5.724	23.195
18.330	132.100	4336.112	12597.875	5.140	22.911
19.192	135.100	4277.962	12627.971	6.272	22.583
20.056	138.500	4336.208	12489.564	5.714	23.251
20.950	141.800	4346.051	12387.507	6.015	23.097
21.840	145.100	4331.149	12329.823	5.558	22.959
22.702	148.300	4267.048	12129.823	6.536	22.443
23.565	151.500	4277.363	11878.176	5.164	23.822
24.456	154.600	4299.751	11780.398	6.272	23.562
25.320	157.700	4242.464	11806.941	5.839	23.651
26.185	160.700	4251.134	11834.541	5.510	25.280
27.068	163.700	4273.417	11676.125	6.958	23.920
27.941	166.600	4299.596	11620.671	7.231	25.790
28.808	169.400	4253.629	11696.567	8.673	27.168
29.674	172.300	4220.446	11706.145	9.806	29.809
30.538	175.100	4278.843	11595.147	9.843	36.257
31.426	177.900	4312.107	11526.765	9.402	49.439
32.318	180.700	4250.900	11537.196	9.387	74.325
33.181	183.400	4232.082	11601.579	10.306	117.385
34.044	185.800	4290.922	11557.141	13.074	202.898
34.908	188.500	4303.659	11708.170	15.266	334.947
35.774	191.300	4249.646	11881.411	23.428	536.537
36.634	194.000	4284.343	12137.821	30.916	777.915
37.499	196.700	4408.034	12294.773	37.859	937.874
38.362	199.300	4453.056	12395.633	41.146	910.681
39.226	202.000	4374.622	11901.535	25.285	422.240
40.090	204.300	4409.388	11538.839	19.322	372.407
40.957	207.000	4676.852	11515.226	19.297	383.766
41.825	209.700	4701.047	11759.230	21.194	399.783
42.693	212.300	4776.031	11700.044	20.971	432.814
43.588	215.000	4876.719	11722.588	23.065	477.082
44.452	217.700	5026.726	11691.129	24.281	527.141
45.318	220.300	5118.077	11820.111	26.940	572.485
46.184	223.000	5126.757	11831.586	28.284	595.661
47.049	225.600	5285.267	11745.653	26.914	586.275
47.915	228.200	5386.501	11691.218	26.590	541.934
48.782	230.600	5217.931	11727.962	23.715	467.180
49.650	233.200	5155.365	11564.388	21.271	397.011
50.514	235.800	5234.917	11494.300	19.535	321.953
51.377	238.500	5146.897	11434.540	16.981	265.203
52.260	241.100	4969.522	11475.093	15.021	227.435
53.124	243.800	4916.268	11446.461	14.122	197.174
53.989	246.400	5014.912	11332.394	13.036	179.881
54.851	249.100	4975.709	11347.678	13.280	163.193
55.744	251.700	4840.936	11407.921	11.186	149.880
56.607	254.300	4816.463	11363.229	11.682	142.347
57.472	256.600	4900.047	11255.415	11.473	133.894
58.338	259.300	4922.551	11359.713	10.966	125.184
59.201	261.900	4813.226	11446.805	11.373	119.843
60.066	264.600	4916.329	11391.580	9.859	117.879
60.931	267.200	4943.574	11330.076	11.920	116.506
61.796	269.800	4878.386	11447.990	11.289	115.554
62.661	272.500	4888.951	11483.626	10.923	115.738
63.523	274.800	5056.894	11400.738	10.397	113.764
64.389	277.400	5065.903	11411.576	11.055	113.562
65.253	280.100	5047.076	11595.414	10.811	111.003
66.118	282.700	5104.971	11583.442	10.019	115.169
67.001	285.400	5243.052	11489.485	10.048	112.631
67.865	288.000	5322.524	11460.879	10.799	113.381
68.738	290.700	5279.085	11584.091	11.147	111.632
69.600	293.300	5344.840	11524.128	11.051	111.194
70.466	295.900	5543.093	11515.862	9.739	113.298
71.332	298.200	5616.033	11560.351	10.975	115.789
72.213	300.900	5559.273	11528.522	10.884	113.499
73.101	303.900	5655.775	11487.002	10.784	113.710
73.965	306.200	5939.607	11457.606	11.156	113.213
74.829	308.800	6092.013	11545.882	9.677	115.023
75.694	311.400	6207.934	11598.382	10.315	116.681
76.557	314.000	6546.395	11392.497	11.701	114.792
77.422	316.700	6948.800	11470.864	11.455	115.698
78.302	319.300	7269.137	11597.898	10.820	115.163
79.169	322.000	7667.889	11594.446	11.273	112.587
80.031	324.600	8230.069	11550.455	11.207	112.827
80.894	326.900	8563.211	11647.939	12.032	107.762
81.761	329.500	8575.931	11663.771	12.125	106.519
82.661	332.200	8686.490	11688.683	10.955	99.105
83.540	334.800	8833.526	11608.609	11.688	93.208
84.399	337.400	8559.463	11568.489	12.663	88.821
85.291	340.100	8179.384	11705.088	13.633	82.405
86.163	342.700	7749.194	11717.977	14.001	78.915
87.027	345.400	7551.582	11679.080	14.049	74.554
87.893	348.000	7196.863	11717.480	15.305	72.540
88.758	350.700	6751.865	11905.496	15.630	70.502
89.624	353.300	6624.996	11838.515	15.522	68.558
90.517	355.900	6654.872	11707.724	16.710	71.776
91.411	358.600	6607.489	11650.920	17.671	69.718
92.275	361.200	6572.262	11737.451	18.785	67.202
93.139	363.900	6721.595	11749.130	18.968	65.623
94.004	366.500	7152.039	11711.774	20.516	65.472
94.886	369.100	7458.024	11605.209	19.276	67.581
95.751	371.400	7612.070	11707.584	19.851	67.953
96.619	374.100	7970.574	11650.194	20.658	66.023
97.485	376.700	8373.401	11644.959	21.644	63.383
98.347	379.400	8543.421	11698.261	21.778	62.680
99.211	382.000	8372.691	11745.450	23.425	63.764
100.075	384.600	8434.876	11686.263	23.532	62.687
100.942	387.300	8676.982	11810.227	24.953	60.666
101.828	389.900	8626.123	12025.129	24.543	63.380
102.691	392.600	8548.102	12249.991	26.603	62.180
103.552	394.900	8670.339	12465.008	27.533	62.951
104.418	397.500	8696.228	12713.751	26.541	61.440
105.285	400.100	8491.697	13205.289	26.883	62.476
106.149	402.800	8403.948	13739.850	27.499	61.457
107.034	405.400	8416.123	14197.382	24.404	58.450
107.900	408.100	8196.579	14637.668	24.705	60.383
108.766	410.700	7722.862	15281.559	23.428	59.769
109.639	413.300	7423.910	15769.785	21.568	59.824
110.506	416.000	7250.198	16111.874	19.283	58.301
111.371	418.300	6963.796	16463.005	20.421	60.499
112.238	420.900	6606.661	17083.474	18.828	57.997
113.104	423.500	6406.290	17346.685	16.811	57.062
113.968	426.100	6350.468	17406.292	14.865	59.096
114.834	428.800	6249.722	17821.283	14.039	57.385
115.697	431.400	5988.091	17999.594	14.484	58.517
116.560	434.000	5939.491	18060.983	13.418	59.080
117.425	436.300	5973.286	18258.131	13.497	58.114
118.291	439.000	5834.422	18720.426	12.693	58.377
119.152	441.600	5782.380	18870.894	12.695	61.179
120.018	444.300	5914.697	18983.000	11.263	59.106
120.886	446.900	5823.933	19009.874	10.937	59.271
121.752	449.500	5665.803	19353.313	11.282	56.468
122.622	452.200	5635.956	19421.032	10.025	55.983
123.488	454.800	5749.667	19340.194	10.514	58.758
124.351	457.200	5748.670	19538.373	10.517	58.293
125.218	459.800	5576.441	19643.589	11.144	58.577
126.085	462.400	5633.710	19668.782	10.062	58.483
126.949	465.100	5721.562	19689.784	10.467	56.207
127.816	467.700	5664.291	19801.661	10.100	58.446
128.704	470.400	5576.421	19717.830	10.312	55.871
129.569	473.000	5670.448	19689.517	10.746	57.812
130.436	475.600	5763.468	19650.569	10.239	57.086
131.301	478.300	5722.607	19734.298	11.041	57.473
132.165	480.900	5767.134	19655.778	10.663	57.211
133.054	483.600	5880.809	19414.015	10.718	55.440
133.918	485.900	5964.636	19078.384	10.765	56.722
134.783	488.500	5878.792	18931.469	10.785	55.787
135.677	491.200	5901.637	18477.503	11.212	56.580
136.540	493.800	6043.180	17867.759	11.002	56.081
137.407	496.400	6107.837	17486.748	10.205	56.371
138.273	499.100	6016.370	17041.418	10.236	55.938
139.139	501.700	6065.378	16493.903	11.324	57.528
140.006	504.300	6206.955	15843.020	12.400	57.088
140.874	507.000	6174.739	15188.316	10.989	54.584
141.738	509.600	6051.790	14722.085	11.383	57.208
142.604	511.900	6029.190	14188.326	12.147	55.989
143.468	514.600	6172.135	13706.137	10.591	56.648
144.333	517.200	6211.650	13437.589	12.487	56.078
145.198	519.800	6081.633	13171.270	12.585	56.401
146.068	522.500	6106.442	12819.565	12.073	58.782
146.935	525.100	6179.783	12677.312	11.783	57.780
147.802	527.700	6116.673	12645.624	11.769	57.398
148.669	530.400	6020.550	12526.907	12.738	57.976
149.535	532.700	6188.657	12379.636	11.795	58.449
150.399	535.300	6138.664	12286.494	11.785	57.212
151.263	538.000	5972.558	12324.729	11.174	58.570
152.127	540.600	5936.343	12214.062	11.718	57.296
152.990	543.200	5975.605	12028.020	12.477	57.473
153.853	545.900	5943.063	12034.834	12.533	56.820
154.718	548.500	5807.286	12112.552	13.288	58.686
155.586	550.800	5701.344	12026.479	12.748	58.040
156.452	553.400	5758.609	12046.437	13.010	59.340
157.315	556.100	5599.963	12051.239	12.821	57.009
158.181	558.700	5450.221	11995.797	12.415	57.705
159.046	561.400	5481.494	11895.090	12.660	58.808
159.920	564.000	5479.562	11914.641	12.398	59.115
160.803	566.600	5341.650	11985.621	12.799	58.756
161.668	569.300	5245.909	11986.958	12.961	59.727
162.534	571.900	5363.182	11909.597	11.829	60.816
163.401	574.600	5302.489	11895.523	13.368	60.122
164.266	576.900	5177.174	11968.108	12.597	61.323
165.125	579.500	5169.959	11997.466	13.103	62.472
166.006	582.200	5289.015	11898.796	12.811	60.233
166.872	584.800	5292.424	11887.410	13.015	62.371
167.739	587.400	5208.913	11975.151	13.234	61.313
168.605	590.100	5204.948	11965.675	12.962	62.583
169.473	592.700	5338.705	11924.499	12.899	64.012
170.339	595.300	5346.197	11998.765	12.869	64.567
171.205	597.600	5277.345	12026.110	12.876	61.900
172.070	600.300	5260.013	11911.979	13.160	64.402
172.935	602.900	5388.781	11947.144	13.700	64.166
173.794	605.600	5286.592	11896.211	14.112	62.579
174.659	608.200	5278.286	11896.771	13.330	62.565
175.514	610.800	5429.935	11925.212	13.088	64.548
176.377	613.100	5406.405	11884.404	13.183	65.172
177.245	615.800	5293.234	11947.513	13.743	64.628
178.112	618.400	5290.852	11994.409	12.791	65.840
178.977	621.000	5468.807	11931.771	14.415	65.659
179.875	623.700	5439.578	11881.730	13.190	65.893
180.741	626.300	5368.953	12065.083	12.707	65.408
181.606	629.000	5373.193	12068.051	12.224	65.883
182.472	631.600	5488.472	12049.812	15.124	64.134
183.401	634.200	5493.404	12039.954	13.010	66.939
184.277	636.900	5372.622	12110.667	12.901	66.980
185.143	639.500	5393.142	12175.216	12.898	69.608
186.009	642.100	5549.822	12124.805	13.745	67.700
186.876	644.800	5578.600	12179.597	13.807	67.165
187.741	647.400	5444.888	12298.912	14.603	68.209
188.605	650.100	5424.753	12304.427	13.636	69.960
189.467	652.400	5567.940	12149.845	12.806	70.045
190.330	655.000	5591.100	12250.195	14.041	71.670
191.194	657.700	5473.766	12360.888	14.162	69.323
192.060	660.300	5540.104	12289.920	13.379	69.984
192.950	662.900	5611.366	12270.790	13.958	69.101
193.816	665.600	5592.084	12434.823	15.239	68.792
194.682	668.200	5498.636	12474.688	14.621	72.685
195.548	670.900	5591.498	12387.647	13.327	72.722
196.414	673.500	5593.336	12371.000	13.734	73.462
197.278	676.200	5498.064	12702.033	13.646	73.591
198.143	678.500	5480.403	12552.737	13.915	72.217
199.012	681.100	5580.143	12459.519	14.780	74.503
199.881	683.800	5547.759	12447.954	14.681	74.998
200.746	686.400	5375.821	12498.785	14.790	75.265
201.625	689.000	5325.154	12578.260	14.594	76.979
202.491	691.600	5423.615	12518.807	14.221	76.882
203.355	694.200	5363.415	12592.462	15.218	77.804
204.221	696.900	5202.953	12662.703	15.056	76.738
205.085	699.500	5095.875	12614.177	14.511	78.346
205.963	701.800	5071.912	12527.773	14.757	79.378
206.828	704.400	4995.002	12572.720	13.655	78.970
207.694	707.100	4798.545	12601.517	13.788	78.837
208.552	709.700	4797.222	12549.540	14.075	79.758
209.414	712.300	4780.933	12615.069	13.387	82.276
210.281	715.000	4596.221	12684.839	14.404	81.348
211.145	717.600	4528.084	12679.286	14.452	77.802
212.013	719.900	4559.000	12549.654	14.437	81.494
212.879	722.500	4470.818	12594.003	15.743	82.875
213.745	725.200	4401.709	12653.138	15.885	83.313
214.609	727.800	4295.059	12696.034	14.871	82.076
215.478	730.500	4370.759	12608.650	13.728	84.962
216.343	733.100	4385.633	12727.506	15.348	80.850
217.222	735.700	4279.878	12815.209	15.613	85.850
218.089	738.400	4271.404	12878.535	14.075	85.416
218.956	741.000	4340.596	12847.573	15.703	86.489
219.821	743.300	4327.962	12935.582	14.749	84.658
220.686	746.000	4201.647	12913.777	16.064	88.465
221.552	748.600	4267.295	12802.881	13.940	86.083
222.417	751.200	4309.719	12835.282	15.358	86.702
223.282	753.900	4201.570	13013.478	15.352	88.847
224.150	756.500	4206.100	13018.394	15.976	89.119
225.009	759.200	4321.927	12984.490	16.105	89.484
225.872	761.500	4291.956	13044.185	15.873	91.055
226.736	764.100	4199.360	13150.904	16.068	92.633
227.602	766.700	4172.892	13094.673	15.507	92.167
228.468	769.400	4304.326	13100.162	16.247	92.254
229.334	772.000	4295.312	13150.496	15.515	91.951
230.200	774.600	4154.836	13187.891	15.098	90.212
231.067	777.300	4192.298	13166.417	16.010	92.684
231.931	779.900	4291.709	13178.810	16.151	94.472
232.794	782.200	4199.715	13299.691	16.146	93.116
233.659	784.900	4191.862	13394.934	15.340	94.782
234.526	787.500	4297.699	13300.595	15.912	93.439
235.390	790.100	4318.851	13426.584	15.934	95.131
236.249	792.800	4183.824	13519.471	16.225	94.616
237.113	795.400	4206.156	13574.646	16.628	99.252
237.978	798.000	4324.336	13596.858	18.263	96.233
