Thu, Oct 12, 2017	1:50 PM
 Notes: GUA_2.45E-9_30sec_0.05 L_101217
 waiting time: 50.000
 time(s)	 temp (K)	 MS1=1.933	 MS2=27.907	 MS3=78.871	 MS4=125.586	 MS5=17.701	 MS6=78.871	 MS7=109.505	 MS8=125.586
0.000	99.300	4192.266	10048.623	7.147	34.060
1.079	99.300	4237.004	9985.387	7.618	33.824
1.994	99.300	4261.909	10021.520	6.217	36.197
2.885	99.300	4298.465	9991.399	6.910	33.484
3.887	99.300	4288.779	10044.930	6.556	34.800
4.753	99.300	4231.289	10120.635	7.392	35.713
5.610	99.300	4203.758	10088.246	6.847	35.547
6.491	99.300	4285.888	10080.388	6.976	35.308
7.381	99.300	4281.300	10040.205	6.590	36.403
8.272	99.300	4201.590	10094.653	7.073	36.169
9.135	99.400	4198.284	10279.472	6.926	35.850
9.996	99.500	4283.876	10857.643	5.965	35.416
10.883	99.900	4320.528	12459.786	7.165	36.058
11.776	100.600	4271.193	13190.247	7.162	36.170
12.659	101.800	4292.966	12744.930	6.711	36.877
13.544	103.600	4365.917	13345.300	7.247	36.953
14.409	106.100	4412.772	13711.486	7.736	35.433
15.302	109.300	4371.929	13750.205	6.758	36.831
16.197	112.800	4364.049	13514.020	6.922	36.138
17.081	116.600	4403.002	13052.413	7.076	35.597
17.990	120.400	4430.060	12817.069	7.385	36.328
18.855	124.100	4417.801	12829.296	7.058	38.282
19.741	127.700	4344.873	12802.027	7.214	37.161
20.607	131.200	4372.551	12736.384	6.924	35.908
21.571	135.100	4396.878	12655.634	6.865	37.408
22.447	138.400	4444.971	12618.024	7.116	37.273
23.348	141.800	4427.429	12519.393	7.356	36.710
24.213	145.000	4346.535	12426.225	7.701	36.035
25.102	148.300	4329.865	12258.079	8.193	38.384
25.968	151.400	4387.005	12063.071	7.498	38.980
26.849	154.500	4390.384	12135.172	8.193	39.363
27.734	157.600	4324.847	12137.363	8.084	38.680
28.634	160.600	4290.094	12082.163	7.708	40.336
29.512	163.600	4409.534	11910.641	8.799	41.510
30.415	166.500	4341.350	11827.587	10.600	46.931
31.280	169.300	4235.482	11863.351	13.056	52.442
32.189	172.500	4187.689	12000.713	14.772	61.198
33.080	175.300	4362.856	11839.737	14.536	69.468
33.946	177.800	4345.144	11765.357	13.286	92.503
34.810	180.500	4276.106	11840.871	12.195	136.025
35.674	183.300	4237.233	11890.161	14.463	211.127
36.563	186.000	4317.545	11859.161	19.178	354.375
37.457	188.700	4321.929	12017.959	26.853	598.587
38.343	191.500	4280.704	12429.715	38.549	988.422
39.237	194.500	4252.801	12954.381	54.053	1491.201
40.129	197.200	4283.659	13504.786	71.273	1923.349
40.995	199.800	4365.946	13616.103	72.234	1648.377
41.861	202.200	4403.060	12856.132	46.071	785.607
42.728	204.900	4375.741	12087.067	30.600	610.849
43.615	207.600	4495.992	12007.298	28.312	598.451
44.478	210.200	4744.210	12055.760	28.656	611.486
45.345	212.900	4870.012	12178.030	31.665	633.307
46.210	215.500	4901.491	12236.007	31.409	688.304
47.077	218.200	5049.085	12135.975	33.045	726.968
47.941	220.800	5222.679	12195.772	34.439	763.763
48.807	223.500	5301.674	12399.708	35.721	793.881
49.717	226.100	5380.219	12392.652	34.586	760.701
50.582	228.800	5405.337	12291.920	34.657	702.712
51.479	231.400	5467.175	12201.555	30.055	604.104
52.388	234.100	5381.132	12020.735	26.761	490.864
53.273	236.700	5138.293	12014.099	23.637	409.438
54.146	239.400	5106.017	11957.894	20.405	346.648
55.021	242.000	5132.947	11801.719	20.779	307.428
55.885	244.700	5087.597	11789.951	18.682	271.549
56.771	247.300	4958.313	11814.952	16.073	247.977
57.633	249.900	4906.663	11738.979	15.366	229.406
58.526	252.600	4970.078	11655.008	15.557	213.026
59.395	255.200	4949.150	11656.587	15.112	205.217
60.260	257.900	4772.177	11709.418	15.451	189.699
61.124	260.500	4914.526	11877.463	14.611	183.356
61.988	262.800	4973.545	11727.402	14.839	179.278
62.854	265.400	4973.676	11697.739	14.563	173.096
63.742	268.100	4933.049	11796.752	14.234	170.836
64.607	270.700	4944.302	11810.456	14.283	170.006
65.473	273.300	5097.645	11768.694	13.866	165.258
66.351	276.000	5147.656	11860.893	14.575	162.839
67.236	278.600	5058.582	11855.352	13.609	165.222
68.142	281.300	5120.108	11777.698	13.193	160.916
69.027	283.900	5232.599	11687.652	13.187	159.952
69.893	286.600	5302.461	11671.667	13.306	158.775
70.759	289.200	5279.483	11828.045	14.231	156.580
71.625	291.900	5393.430	11858.613	13.706	157.883
72.606	294.800	5454.992	11820.149	14.078	157.019
73.475	297.500	5624.604	11738.776	13.314	158.376
74.368	300.100	5648.708	11705.750	13.010	155.397
75.235	302.700	5655.414	11734.216	14.746	152.286
76.167	305.400	5781.283	11783.659	14.297	154.875
77.033	308.000	6047.942	11699.051	13.392	156.459
77.899	310.600	6250.756	11696.975	14.135	153.577
78.763	313.300	6334.273	11765.993	13.286	155.772
79.628	315.900	6654.082	11730.395	13.602	154.232
80.494	318.600	7121.096	11569.636	12.559	151.474
81.356	321.200	7465.792	11620.607	13.630	151.804
82.261	323.800	7839.972	11700.821	14.283	146.570
83.149	326.500	8073.813	11709.979	14.423	149.183
84.042	329.100	8544.382	11604.865	14.610	143.194
84.934	331.700	8604.000	11612.519	14.913	136.172
85.829	334.400	8566.612	11706.234	15.377	128.093
86.715	337.000	8234.295	11733.668	14.912	122.643
87.599	339.700	8022.062	11701.127	14.696	117.220
88.484	342.300	7743.505	11643.341	16.670	114.834
89.342	344.900	7441.448	11809.947	17.049	111.283
90.207	347.600	6971.165	11835.929	17.796	108.043
91.086	350.200	6724.296	11743.042	17.856	105.561
91.953	352.800	6634.568	11735.222	18.785	102.891
92.821	355.500	6526.188	11777.354	18.840	103.636
93.686	358.100	6416.118	11803.095	19.660	102.552
94.551	360.400	6557.162	11726.370	21.009	99.493
95.426	363.100	6728.223	11636.285	22.039	99.460
96.291	365.700	6854.491	11784.550	22.086	98.390
97.155	368.400	7098.400	11777.087	22.774	98.489
98.019	371.000	7562.153	11680.621	23.387	96.927
98.884	373.700	7930.212	11754.199	24.054	96.338
99.783	376.300	8085.094	11820.658	23.177	97.771
100.649	378.900	8171.986	11820.837	25.025	95.004
101.553	381.500	8388.901	11782.538	24.797	91.748
102.418	384.200	8475.247	11867.286	25.472	92.047
103.303	386.800	8521.578	12120.793	29.436	91.547
104.167	389.500	8495.241	12306.554	29.873	92.026
105.030	392.100	8655.138	12369.319	28.631	89.940
105.943	394.700	8666.042	12601.428	31.067	89.501
106.821	397.400	8599.831	12990.705	31.753	87.981
107.704	400.000	8441.889	13459.037	29.907	91.309
108.596	402.700	8350.351	13792.426	30.475	90.757
109.479	405.300	8344.584	14274.182	28.975	88.907
110.342	407.900	8115.461	14887.162	27.619	89.780
111.207	410.500	7727.133	15457.870	25.297	88.072
112.104	413.200	7465.831	15905.429	24.595	87.160
112.998	415.800	7285.245	16278.925	23.402	87.488
113.864	418.500	6989.538	16692.554	21.888	84.306
114.728	421.100	6645.446	17180.449	20.334	83.417
115.592	423.700	6453.750	17355.384	17.732	87.768
116.476	426.400	6351.737	17442.412	18.620	82.671
117.337	429.000	6229.098	17895.155	18.246	83.245
118.202	431.600	5964.018	18005.070	17.123	82.918
119.068	433.900	5953.648	18106.847	15.709	82.653
119.934	436.600	5950.131	18273.249	14.389	84.108
120.801	439.200	5856.004	18641.371	14.405	81.747
121.666	441.900	5793.591	18788.629	13.611	81.831
122.557	444.500	5783.097	18708.084	13.098	81.258
123.447	447.200	5764.388	18846.427	13.318	82.202
124.369	450.100	5789.372	19061.419	13.193	83.664
125.250	452.800	5628.234	19274.627	12.790	84.122
126.113	455.100	5658.119	19443.754	12.339	82.523
126.978	457.700	5770.968	19362.139	12.339	79.511
127.841	460.400	5699.626	19510.672	13.305	80.299
128.727	463.000	5609.569	19615.747	12.714	80.662
129.592	465.600	5596.862	19612.436	12.240	78.658
130.457	468.300	5702.109	19664.490	11.906	78.945
131.321	470.900	5694.278	19714.773	12.555	80.580
132.193	473.600	5607.633	19713.780	13.191	81.685
133.057	476.200	5749.870	19502.304	12.766	80.871
133.923	478.500	5835.045	19484.651	13.482	78.172
134.809	481.500	5776.639	19493.554	12.752	80.642
135.690	484.100	5796.480	19286.612	12.689	78.990
136.577	486.700	5836.075	18850.261	13.329	79.705
137.445	489.100	5949.012	18473.784	12.582	79.767
138.310	491.700	5912.096	18268.040	12.976	79.326
139.172	494.300	5956.911	17819.016	12.678	79.483
140.035	497.000	6062.919	17251.340	13.151	75.384
140.902	499.600	6109.878	16705.698	12.697	79.660
141.768	502.200	5997.547	16206.544	13.922	77.836
142.640	504.900	5995.849	15653.718	11.998	77.403
143.530	507.500	6129.759	15047.807	13.710	77.520
144.395	510.100	6158.573	14611.749	12.831	80.805
145.261	512.800	6065.958	14244.952	13.585	77.771
146.129	515.100	6095.405	13813.594	13.325	77.816
146.996	517.700	6174.424	13398.819	13.066	77.946
147.917	520.700	6181.638	13074.829	13.245	78.451
148.804	523.400	6076.839	12962.939	13.964	78.698
149.672	526.000	6092.332	12818.903	13.599	79.387
150.539	528.600	6136.336	12541.096	13.669	77.656
151.422	531.300	6159.758	12404.472	14.347	79.477
152.288	533.600	5991.311	12459.149	13.949	78.795
153.163	536.200	5932.842	12317.049	15.057	81.035
154.028	538.900	6047.984	12212.393	14.756	80.400
154.916	541.500	6012.506	12176.273	13.378	81.069
155.783	544.100	5809.846	12164.109	14.289	76.366
156.647	546.800	5756.341	12114.119	13.903	79.259
157.514	549.400	5804.723	12011.820	14.107	81.863
158.379	552.000	5694.214	11956.989	14.279	79.739
159.239	554.700	5553.208	12103.930	14.947	79.861
160.107	557.300	5492.443	11965.153	14.912	74.625
160.973	559.600	5515.599	11952.060	14.114	81.178
161.841	562.200	5513.711	12061.645	14.837	81.805
162.709	564.900	5378.537	12091.333	15.593	80.182
163.576	567.500	5343.104	11951.946	14.828	80.694
164.440	570.200	5363.375	12002.318	14.185	80.082
165.305	572.800	5266.488	12012.991	15.309	81.568
166.217	575.400	5179.756	11981.265	16.603	82.664
167.085	578.100	5198.435	11950.761	13.987	81.598
167.970	580.700	5282.796	11915.685	15.384	80.634
168.837	583.400	5292.901	12024.098	14.774	82.622
169.790	586.300	5218.955	12030.568	14.733	84.152
170.695	589.000	5264.848	11950.545	15.075	83.474
171.561	591.600	5270.229	11975.737	14.104	86.426
172.427	594.200	5343.364	11955.792	15.717	83.844
173.290	596.600	5286.615	12035.815	15.848	85.618
174.157	599.200	5334.718	12168.414	15.102	86.031
175.021	601.800	5394.986	12036.350	14.674	84.330
175.888	604.500	5439.060	12020.901	16.232	87.136
176.754	607.100	5364.633	12173.573	14.890	85.912
177.616	609.800	5391.107	12134.956	15.520	87.699
178.476	612.400	5422.467	12042.362	15.062	84.337
179.343	614.700	5449.746	12069.019	15.608	88.118
180.211	617.300	5377.447	12157.155	14.912	89.303
181.076	620.000	5395.006	12078.546	14.983	86.638
181.943	622.600	5459.432	12053.213	15.821	88.326
182.812	625.200	5418.246	12238.936	16.066	88.135
183.676	627.900	5393.542	12121.391	15.214	91.036
184.541	630.500	5486.071	12029.154	15.468	89.522
185.429	633.100	5469.076	12072.305	15.834	90.780
186.331	635.800	5527.709	12188.105	15.670	92.688
187.198	638.400	5425.656	12197.186	14.904	88.693
188.067	641.000	5454.443	12200.319	15.303	88.243
188.932	643.700	5549.236	12291.881	15.198	91.166
189.825	646.300	5565.961	12433.345	16.627	92.144
190.687	649.000	5429.388	12315.953	15.902	92.486
191.553	651.300	5550.707	12234.211	16.410	89.955
192.420	653.900	5581.154	12253.799	16.865	93.306
193.286	656.500	5510.384	12392.690	17.049	96.445
194.163	659.200	5512.186	12403.504	16.274	95.886
195.028	661.800	5601.777	12329.237	16.274	91.223
195.892	664.400	5608.232	12405.834	16.442	93.575
196.760	667.100	5530.754	12519.354	15.697	95.082
197.625	669.700	5515.743	12474.497	15.666	96.430
198.493	672.400	5598.432	12405.414	15.809	94.098
199.360	674.700	5580.058	12458.602	16.050	95.331
200.225	677.300	5487.908	12491.704	15.474	98.007
201.090	680.000	5469.970	12559.767	15.899	100.777
201.954	682.600	5541.654	12454.526	15.721	98.758
202.821	685.200	5465.615	12597.709	17.582	98.035
203.690	687.900	5404.416	12693.054	15.990	96.711
204.555	690.500	5349.744	12499.944	16.780	96.439
205.422	693.200	5353.947	12510.630	17.143	101.354
206.294	695.500	5235.143	12666.117	17.255	98.881
207.176	698.100	5162.968	12650.973	16.753	100.372
208.044	700.800	5126.089	12512.439	17.183	98.226
208.910	703.400	5033.879	12520.412	15.831	103.747
209.838	706.400	4925.638	12515.916	16.523	102.743
210.754	709.000	4779.491	12573.943	17.362	104.260
211.655	711.600	4694.373	12621.017	16.293	100.210
212.537	714.200	4721.198	12517.941	17.815	100.196
213.400	716.900	4604.374	12569.625	17.289	103.101
214.262	719.500	4458.086	12620.304	16.906	103.197
215.127	722.100	4421.144	12707.051	16.806	103.212
215.996	724.800	4435.583	12597.518	16.921	104.654
216.861	727.400	4393.001	12615.591	17.965	104.930
217.753	730.000	4360.108	12862.322	17.680	105.202
218.620	732.700	4305.847	12864.920	16.970	107.988
219.485	735.000	4388.392	12764.136	16.370	109.132
220.349	737.600	4377.199	12895.322	18.330	112.205
221.214	740.300	4302.925	12987.967	18.394	110.161
222.080	742.900	4279.942	12926.692	16.797	109.670
222.946	745.500	4354.226	12914.872	17.101	107.390
223.811	748.200	4292.815	12993.010	17.368	112.105
224.677	750.800	4258.468	13077.033	17.730	111.217
225.543	753.100	4266.960	12912.707	18.226	113.319
226.411	755.700	4294.804	12932.538	16.973	114.034
227.279	758.400	4225.462	13094.609	16.947	114.590
228.146	761.000	4225.574	13148.752	19.228	114.956
229.012	763.700	4325.342	13091.871	16.524	111.934
229.883	766.300	4311.644	13149.630	18.249	114.522
230.750	768.900	4256.364	13296.698	17.580	118.307
231.617	771.500	4220.603	13303.054	18.330	114.632
232.481	774.200	4335.102	13297.577	17.791	118.600
233.349	776.500	4294.351	13307.359	18.432	116.703
234.214	779.200	4250.906	13409.237	18.816	119.736
235.078	781.800	4233.509	13406.754	18.684	119.700
235.989	784.400	4290.913	13379.269	17.567	120.222
236.854	787.000	4313.315	13465.991	18.398	121.176
237.721	789.700	4245.249	13631.667	17.727	121.046
238.579	792.300	4241.790	13552.879	18.165	121.783
239.447	795.000	4274.991	13531.418	18.300	121.558
240.314	797.600	4276.642	13724.006	17.942	124.360
241.175	800.200	4198.718	13753.211	17.885	120.768
