Wed, Oct 18, 2017	2:45 PM
 Notes: GUA_8.27E-10_30 sec_0.005L_101817
 waiting time: 50.000
 time(s)	 temp (K)	 MS1=1.971	 MS2=14.708	 MS3=27.883	 MS4=125.586	 MS5=109.505	 MS6=125.586	 MS7=109.505	 MS8=125.586
0.000	100.600	4468.769	817.820	15756.998	38.114
0.929	100.600	4443.900	811.565	15509.580	39.441
1.787	100.600	4465.070	835.599	15836.079	41.658
2.689	100.600	4549.457	859.937	15963.188	40.367
3.574	100.600	4535.531	852.513	15906.460	42.740
4.450	100.600	4518.228	879.793	15767.697	43.035
5.340	100.600	4518.255	871.234	15721.030	44.585
6.222	100.600	4537.636	856.509	15885.356	45.762
7.123	100.600	4551.460	874.841	16033.786	45.826
7.989	100.600	4529.612	951.611	16177.097	45.938
8.893	100.800	4512.400	1026.873	17797.071	48.629
9.771	101.200	4541.230	1130.846	21113.044	48.656
10.666	102.000	4589.787	1266.525	19971.209	48.932
11.560	103.400	4606.703	1381.976	20279.431	51.264
12.455	105.800	4595.489	1582.348	21004.670	51.552
13.320	108.200	4608.815	1722.229	21300.881	53.946
14.183	111.400	4664.745	1767.219	20828.792	52.827
15.050	115.100	4660.084	1833.280	20008.858	54.707
15.958	118.900	4614.940	1857.487	19301.093	57.543
16.828	122.700	4601.443	1791.623	19148.179	54.670
17.730	126.900	4638.559	1781.749	19301.450	57.279
18.624	130.500	4620.691	1683.514	19142.512	58.714
19.520	133.900	4611.611	1645.804	18756.878	57.879
20.384	137.300	4601.902	1638.535	18724.361	59.879
21.279	140.600	4543.770	1581.816	18900.392	59.070
22.153	143.900	4587.874	1519.565	18749.592	61.206
23.053	147.200	4582.583	1450.351	18445.306	64.436
23.946	150.400	4529.107	1417.103	18224.023	65.126
24.855	153.500	4546.623	1442.691	18282.636	64.849
25.740	156.600	4529.250	1322.969	18350.508	68.160
26.642	160.000	4532.638	1261.057	18335.658	70.035
27.507	162.600	4551.860	1287.084	17984.514	67.527
28.410	165.900	4510.995	1239.347	17971.956	72.075
29.289	168.800	4535.740	1247.566	18295.143	70.685
30.153	171.300	4569.977	1231.100	18277.694	73.550
31.056	174.500	4547.032	1171.495	18028.085	75.210
31.920	177.300	4510.901	1184.825	17805.630	75.080
32.815	180.100	4531.808	1131.866	17886.137	77.693
33.681	182.800	4580.885	1164.118	18176.427	81.286
34.546	185.200	4594.674	1135.252	17865.606	86.315
35.452	188.300	4573.876	1130.045	17780.272	92.572
36.337	191.000	4600.929	1104.824	17610.610	94.171
37.203	193.700	4650.284	1075.635	17903.446	98.270
38.105	196.400	4740.929	1072.157	17911.534	105.101
38.972	199.100	4741.479	1089.370	17555.525	111.069
39.837	201.800	4794.381	1065.693	17598.230	115.554
40.737	204.500	4911.352	1054.177	17806.140	123.770
41.619	207.200	4981.813	1075.719	17826.034	135.466
42.483	209.800	4984.794	1052.571	17461.364	147.771
43.379	212.500	5023.381	1084.812	17616.787	161.597
44.242	215.200	5107.974	1098.610	17909.840	174.182
45.105	217.500	5155.630	1051.181	17744.827	189.130
45.967	220.100	5132.333	1066.397	17553.678	203.843
46.868	222.800	5208.876	1098.817	17527.810	216.774
47.755	225.400	5215.470	1054.724	17705.318	218.019
48.650	228.400	5288.489	1061.514	17715.494	214.810
49.526	231.100	5279.739	1091.626	17485.016	205.305
50.450	233.700	5252.904	1102.360	17518.067	191.356
51.328	236.300	5223.732	1066.816	17460.855	180.319
52.194	239.000	5285.091	1067.386	17715.405	173.698
53.089	241.600	5255.674	1045.848	17753.245	163.149
53.994	244.200	5220.319	1068.089	17421.907	164.378
54.861	246.900	5192.064	1090.907	17444.692	160.563
55.724	249.500	5241.855	1089.965	17740.636	157.924
56.582	252.200	5232.221	1081.447	17714.921	158.190
57.475	254.800	5190.331	1089.239	17491.180	157.052
58.341	257.500	5205.938	1070.869	17369.967	156.885
59.205	260.100	5226.999	1063.116	17719.099	156.467
60.071	262.400	5301.300	1074.475	17549.589	158.723
60.933	265.100	5257.738	1085.987	17416.443	160.375
61.799	267.700	5275.910	1108.105	17694.225	159.514
62.705	270.300	5374.634	1093.648	17760.862	164.951
63.571	273.000	5425.707	1095.815	17657.238	167.345
64.473	275.600	5478.106	1133.934	17456.601	170.035
65.335	278.200	5459.363	1140.588	17525.263	170.529
66.204	280.900	5626.738	1154.184	17885.220	173.874
67.105	283.500	5680.096	1191.092	17874.547	178.444
67.973	286.200	5719.397	1208.421	17566.325	175.494
68.838	288.800	5809.782	1260.717	17760.085	182.786
69.738	291.500	5905.521	1249.862	17917.023	184.775
70.604	294.100	6026.454	1251.236	17848.934	185.478
71.470	296.700	6055.964	1272.355	17536.649	190.284
72.336	299.400	6177.737	1303.243	17673.668	192.441
73.202	302.000	6338.826	1334.409	17975.025	199.942
74.068	304.700	6476.789	1335.754	17806.522	199.246
74.932	307.300	6554.557	1375.865	17728.944	201.898
75.800	309.600	6781.728	1385.497	18016.597	204.413
76.665	312.200	7129.788	1431.323	18205.224	209.107
77.531	314.900	7155.105	1470.471	17874.280	215.792
78.397	317.500	7622.534	1490.600	17865.122	212.422
79.295	320.200	7922.288	1530.111	18212.280	219.257
80.179	322.800	8280.090	1560.779	18281.668	227.103
81.084	325.400	8622.912	1646.691	18419.833	227.110
81.959	328.100	8711.991	1692.682	18066.422	227.265
82.827	330.700	8781.308	1684.740	18144.827	227.377
83.712	333.300	8779.553	1663.025	18370.084	231.393
84.618	336.300	8649.950	1661.731	18390.934	232.008
85.497	338.900	8444.631	1673.635	18040.516	227.543
86.364	341.300	8123.666	1641.229	18007.452	227.828
87.231	343.900	7939.259	1622.778	18343.465	229.595
88.097	346.500	7593.238	1534.021	18318.476	231.589
89.000	349.200	7311.418	1511.446	18142.115	230.563
89.901	352.100	7150.433	1446.739	18051.839	235.992
90.765	354.500	7013.379	1407.393	18397.977	236.838
91.632	357.100	7044.486	1386.495	18312.885	240.766
92.500	359.700	7067.002	1363.043	18057.290	249.204
93.369	362.400	7215.631	1394.039	18233.715	245.376
94.275	365.000	7405.003	1367.617	18592.272	253.291
95.174	368.000	7715.352	1399.477	18683.414	253.095
96.048	370.600	8024.207	1396.127	18433.308	260.172
96.914	372.900	8212.665	1400.828	18451.699	259.868
97.780	375.600	8343.353	1394.795	18830.138	266.654
98.687	378.500	8627.093	1391.456	18862.934	272.240
99.552	380.800	8754.715	1384.335	18750.382	271.518
100.419	383.500	8755.846	1409.582	18780.771	281.019
101.283	386.100	8832.964	1376.406	19039.538	280.435
102.151	388.700	8941.896	1354.096	19222.611	281.626
103.019	391.400	9025.914	1383.332	19150.001	285.948
103.884	394.000	9017.990	1387.647	19459.522	290.130
104.750	396.700	9065.267	1401.277	20083.888	294.479
105.642	399.300	9119.356	1365.999	20465.561	297.037
106.508	401.900	9020.707	1388.783	20732.747	306.705
107.371	404.200	8811.585	1409.231	21291.316	307.982
108.271	407.200	8556.545	1410.866	22289.612	307.286
109.138	409.800	8468.666	1441.115	22963.115	314.326
110.006	412.100	8122.047	1424.019	23117.812	320.120
110.872	414.800	7817.598	1448.817	23772.173	325.319
111.737	417.400	7603.138	1441.235	24649.765	326.885
112.605	420.100	7332.603	1457.857	25145.646	337.008
113.471	422.700	7005.765	1462.193	24886.345	338.549
114.337	425.300	6816.949	1460.480	25280.015	341.470
115.205	428.000	6772.245	1497.881	26085.507	342.156
116.066	430.600	6695.049	1516.404	26064.288	349.759
116.927	432.900	6503.796	1518.106	25984.685	357.455
117.794	435.500	6433.240	1506.504	26673.829	356.622
118.662	438.200	6438.182	1539.815	26957.788	360.100
119.527	440.800	6413.381	1533.259	26698.487	366.742
120.393	443.500	6322.117	1557.775	26781.044	371.345
121.302	446.100	6290.021	1541.178	27302.627	372.668
122.164	448.800	6276.282	1540.370	27602.329	381.520
123.027	451.400	6263.732	1528.895	27217.510	383.227
123.892	454.000	6176.131	1558.984	27429.635	389.840
124.754	456.300	6186.436	1563.384	27976.959	393.631
125.658	459.300	6210.719	1553.825	27918.116	396.074
126.523	462.000	6203.822	1581.725	27726.611	399.463
127.423	464.600	6160.442	1587.107	27652.077	409.700
128.288	467.200	6156.366	1587.142	28360.555	405.589
129.149	469.500	6260.860	1630.692	28617.959	417.254
130.054	472.500	6212.363	1606.727	28172.922	412.882
130.954	475.100	6266.115	1650.898	27993.682	422.297
131.821	477.800	6268.132	1673.136	28056.332	432.923
132.688	480.400	6404.893	1653.202	28234.706	433.026
133.555	483.100	6451.891	1685.935	27716.804	439.782
134.421	485.400	6483.255	1716.413	27370.194	451.101
135.287	488.000	6525.702	1726.475	27422.515	447.616
136.153	490.600	6617.989	1732.884	26988.865	448.856
137.019	493.300	6648.908	1722.417	25944.018	457.878
137.912	495.900	6614.116	1746.482	25400.630	460.647
138.818	498.600	6721.451	1793.364	25057.713	465.241
139.694	501.200	6797.739	1781.346	24722.567	469.832
140.557	503.800	6793.787	1776.010	23629.766	470.070
141.461	506.500	6738.543	1802.503	23023.231	474.486
142.328	509.100	6798.246	1816.482	22425.981	475.216
143.193	511.800	6877.051	1821.515	22179.633	484.450
144.061	514.400	6912.890	1832.327	21399.780	485.843
144.961	517.000	6791.171	1850.253	20803.943	491.340
145.826	519.600	6786.768	1859.102	20623.570	493.479
146.692	522.300	6918.292	1863.610	20731.664	498.511
147.561	524.900	6890.904	1871.304	20265.777	503.292
148.428	527.600	6839.875	1891.706	19924.593	508.445
149.296	530.300	6779.738	1899.095	20248.137	508.617
150.163	532.600	6853.553	1900.595	20062.134	513.600
151.029	535.200	6853.031	1927.335	19715.168	523.385
151.895	537.800	6794.665	1965.163	19725.917	525.539
152.762	540.400	6784.294	1979.268	20070.579	525.070
153.629	543.100	6827.827	2013.171	20113.398	529.902
154.495	545.700	6754.478	2054.229	19819.072	531.666
155.358	548.400	6666.795	2046.848	19719.256	541.317
156.224	551.000	6633.798	2005.933	20026.561	543.833
157.090	553.300	6588.110	2070.561	20162.816	554.808
157.955	555.900	6487.846	2090.469	19748.474	552.296
158.821	558.600	6393.840	2062.236	19868.795	561.966
159.685	561.200	6373.953	2067.173	20084.818	557.595
160.551	563.800	6302.058	2048.491	19668.807	564.321
161.419	566.500	6189.003	2077.279	19563.082	572.034
162.287	569.100	6164.456	2075.718	19989.498	568.203
163.155	571.800	6150.769	2103.922	20019.786	578.293
164.021	574.100	6159.901	2114.667	19715.181	578.699
164.887	576.700	6097.468	2149.653	19704.941	584.996
165.751	579.300	6097.642	2130.252	20030.191	589.853
166.618	582.000	6154.739	2153.997	20043.768	592.561
167.486	584.600	6130.344	2151.317	19682.945	598.675
168.353	587.300	6110.051	2170.144	19687.402	599.403
169.218	589.900	6121.058	2131.057	19985.843	602.793
170.083	592.500	6141.963	2135.485	19853.549	603.017
170.950	594.800	6088.050	2166.896	19628.598	606.259
171.818	597.500	6115.264	2188.236	19928.745	611.823
172.684	600.100	6207.672	2172.666	20022.333	615.785
173.550	602.800	6237.843	2224.938	19848.035	628.193
174.415	605.400	6164.143	2251.786	19862.223	620.676
175.285	608.000	6181.391	2227.297	20112.596	619.128
176.188	610.700	6289.619	2239.293	20268.541	627.804
177.050	613.300	6307.725	2254.654	19831.566	640.737
177.919	615.900	6223.468	2242.841	19806.616	638.912
178.826	618.600	6228.446	2251.089	19926.147	639.964
179.692	621.200	6297.610	2254.442	20175.807	639.876
180.558	623.900	6308.341	2247.276	19937.483	645.980
181.425	626.500	6257.694	2274.167	19835.438	649.839
182.293	629.100	6276.135	2286.978	20292.537	658.269
183.159	631.400	6352.943	2277.719	20333.217	656.333
184.025	634.100	6358.820	2306.059	19972.355	666.598
184.893	636.700	6305.798	2319.106	20027.822	661.982
185.783	639.300	6325.272	2349.942	20411.788	669.400
186.652	642.000	6382.887	2317.328	20422.729	671.207
187.518	644.600	6401.947	2337.096	20039.323	666.622
188.423	647.300	6336.179	2331.474	19981.130	672.905
189.291	649.900	6340.021	2317.119	20330.568	674.863
190.158	652.600	6430.962	2312.185	20311.807	678.576
191.023	655.200	6426.788	2320.120	19946.182	679.750
191.888	657.800	6377.905	2383.217	20082.181	685.035
192.754	660.400	6397.400	2337.641	20416.564	685.972
193.621	663.100	6453.765	2355.649	20442.063	685.293
194.487	665.400	6444.106	2392.479	20153.798	699.717
195.350	668.000	6422.655	2381.010	20097.796	697.987
196.250	670.700	6451.071	2398.459	20547.368	704.569
197.114	673.300	6487.567	2387.501	20510.190	700.554
197.982	676.000	6403.224	2413.615	20152.767	702.574
198.886	678.600	6433.408	2428.586	20134.516	705.102
199.753	681.200	6389.711	2405.465	20511.438	712.086
200.618	683.900	6431.021	2417.811	20462.390	708.863
201.511	686.500	6383.925	2411.901	20117.678	709.216
202.379	689.100	6319.281	2457.351	20217.060	709.914
203.247	691.800	6271.365	2429.823	20478.451	716.751
204.115	694.400	6248.343	2440.272	20466.720	716.489
204.979	697.000	6113.624	2455.534	20057.944	719.366
205.845	699.700	6046.337	2468.921	20115.882	724.527
206.711	702.300	6055.705	2446.469	20437.898	719.132
207.579	704.700	5963.725	2449.807	20271.190	724.280
208.447	707.300	5821.526	2467.253	20077.074	722.368
209.314	709.900	5731.990	2447.158	20124.365	728.692
210.178	712.500	5701.638	2401.371	20262.351	732.534
211.043	715.200	5614.581	2422.700	19989.638	727.122
211.909	717.800	5542.497	2460.609	20043.144	734.569
212.776	720.500	5444.553	2439.161	20336.197	729.637
213.643	723.100	5462.366	2433.254	20253.601	735.206
214.508	725.400	5397.959	2463.684	19969.095	738.398
215.370	728.000	5327.302	2475.917	19933.216	750.108
216.234	730.600	5372.840	2438.634	20336.681	741.618
217.099	733.300	5355.265	2461.633	20349.749	738.132
217.964	735.900	5293.101	2512.648	20020.435	754.391
218.829	738.600	5298.150	2528.487	20167.516	751.091
219.698	741.200	5328.123	2517.466	20569.274	750.667
220.563	743.500	5266.043	2466.274	20133.509	755.664
221.429	746.100	5233.746	2532.830	20138.731	754.355
222.296	748.800	5252.510	2531.992	20542.439	750.419
223.161	751.400	5272.802	2509.054	20441.337	758.015
224.027	754.000	5260.742	2499.364	20047.182	757.496
224.896	756.700	5219.567	2527.576	20118.799	758.928
225.762	759.300	5215.457	2510.521	20536.159	759.500
226.628	761.900	5254.370	2508.022	20497.160	754.936
227.495	764.600	5219.141	2535.962	20101.210	762.399
228.362	766.900	5203.586	2506.682	19984.289	767.325
229.228	769.500	5232.770	2477.760	20392.811	764.830
230.094	772.200	5254.626	2510.330	20429.530	774.059
230.996	774.800	5263.332	2562.999	20204.821	771.425
231.863	777.500	5205.902	2549.266	20329.027	763.244
232.771	780.100	5232.441	2568.970	20723.373	770.679
233.637	782.700	5289.213	2575.405	20708.598	778.694
234.502	785.300	5266.653	2586.213	20361.543	780.452
235.364	788.000	5236.739	2575.572	20393.537	783.690
236.228	790.600	5255.403	2514.635	20767.097	778.021
237.086	793.300	5267.880	2541.106	20674.796	784.359
237.947	795.900	5222.768	2582.506	20431.937	781.954
238.811	798.200	5253.106	2567.803	20740.770	790.189
239.676	800.800	5266.688	2560.822	20827.671	782.041
240.572	803.400	5296.597	2579.240	20810.299	779.263
241.441	806.100	5247.033	2612.249	20733.944	780.776
