Thu, Oct 12, 2017	2:44 PM
 Notes: GUA_7.1E-10_30sec_0.0015 L_more masses_101217
 waiting time: 50.000
 time(s)	 temp (K)	 MS1=28.936	 MS2=30.937	 MS3=42.078	 MS4=95.042	 MS5=109.505	 MS6=125.586	 MS7=109.505	 MS8=125.586
0.000	98.400	335.353	40.602	51.256	2.037	1.384	14.727
1.442	98.400	331.329	39.384	52.105	1.735	1.238	15.366
2.752	98.400	335.495	38.906	52.797	2.214	0.928	15.295
4.060	98.400	329.879	38.367	50.118	2.141	1.283	15.719
5.369	98.500	331.093	39.485	51.502	1.902	1.068	16.665
6.657	98.500	330.608	38.613	51.466	2.186	1.364	16.607
7.940	98.500	329.228	40.123	51.807	2.209	1.054	16.972
9.236	98.500	330.836	38.563	51.783	2.270	1.577	16.895
10.527	98.500	328.584	40.091	49.366	2.281	1.255	16.817
11.841	98.500	328.255	40.619	51.032	2.032	1.272	17.230
13.136	98.800	337.604	40.519	52.217	2.147	1.239	18.412
14.439	99.500	374.549	40.142	53.357	2.009	1.212	18.478
15.734	101.300	363.391	41.101	51.291	2.222	1.257	17.940
17.026	104.700	372.123	41.623	51.499	2.431	1.762	18.882
18.346	109.400	378.686	39.192	51.426	2.314	1.396	18.221
19.635	114.900	386.898	40.813	52.404	2.523	1.117	17.945
20.926	120.000	376.505	39.319	52.590	2.461	1.270	18.002
22.269	125.900	367.542	39.003	53.034	2.453	1.382	19.437
23.573	131.100	363.934	40.711	51.037	2.623	1.483	19.248
24.886	135.800	363.968	40.965	55.679	2.373	1.155	20.531
26.176	140.700	363.207	42.171	52.965	2.306	1.377	19.843
27.468	145.600	358.655	40.440	53.433	2.705	1.366	19.957
28.760	150.400	358.295	41.491	55.051	2.682	1.110	19.524
30.052	154.600	347.454	42.161	54.205	2.110	1.391	20.295
31.344	159.100	352.022	39.209	53.414	2.330	1.237	20.229
32.648	163.500	344.190	43.012	54.903	2.117	1.361	20.255
33.952	167.800	343.335	40.632	53.474	2.734	1.515	21.484
35.271	172.100	349.830	41.817	53.834	2.476	1.520	21.419
36.563	176.300	346.816	41.314	53.448	2.506	1.338	20.396
37.854	180.100	350.724	41.211	54.043	2.583	1.161	22.779
39.176	184.200	350.161	42.546	53.687	2.591	1.336	22.475
40.482	188.300	345.548	43.179	53.635	2.425	1.773	22.371
41.772	192.300	346.319	42.329	55.843	3.017	1.085	22.538
43.076	196.400	347.244	43.475	54.672	2.811	1.694	23.241
44.367	200.400	346.661	42.827	56.688	2.617	1.686	22.543
45.661	204.100	348.928	44.788	54.038	2.454	1.378	23.777
46.954	208.100	347.784	40.944	53.823	2.589	1.791	23.743
48.243	212.100	350.585	42.818	57.289	2.735	1.434	26.194
49.536	216.100	346.816	44.557	57.989	2.588	1.635	28.815
50.845	219.700	358.561	42.615	57.601	3.019	1.772	30.541
52.134	223.700	358.013	43.908	57.208	3.084	1.742	32.825
53.435	227.700	360.051	43.896	57.605	3.147	1.438	31.033
54.726	231.600	363.563	45.638	57.216	3.179	1.826	32.316
56.019	235.600	354.102	43.251	56.897	2.881	1.451	32.740
57.308	239.200	360.817	46.740	58.599	2.763	1.627	32.806
58.598	243.200	357.928	44.260	57.078	3.097	1.465	32.080
59.888	247.200	353.102	45.022	57.256	3.309	1.539	30.856
61.204	251.100	357.804	44.552	58.737	3.236	1.552	30.842
62.508	255.100	356.330	44.812	57.419	3.144	1.611	29.787
63.814	258.700	363.483	45.082	58.107	3.064	1.359	30.355
65.110	262.700	356.096	44.729	56.711	3.034	1.563	29.477
66.425	266.600	357.422	44.229	58.746	3.543	1.246	30.054
67.715	270.600	364.760	44.357	57.966	2.917	1.348	28.912
69.001	274.500	359.025	47.594	61.548	3.021	1.325	31.966
70.285	278.200	363.726	45.490	59.771	3.337	1.781	30.492
71.576	282.100	363.415	46.883	57.885	2.603	1.575	31.118
72.869	286.100	365.307	47.402	58.892	3.068	1.374	32.070
74.163	289.800	365.577	47.167	58.316	3.150	1.379	32.327
75.499	294.000	365.098	47.548	58.964	3.418	1.706	33.112
76.788	297.700	371.928	48.025	59.560	2.968	1.347	33.168
78.083	301.600	364.977	47.532	62.212	3.289	1.620	34.430
79.404	305.600	369.849	45.733	60.124	3.081	1.177	34.668
80.710	309.500	370.961	48.483	61.291	3.180	1.285	35.611
82.029	313.500	373.844	48.261	62.835	3.586	1.761	34.946
83.322	317.400	376.543	46.858	63.444	3.303	1.631	37.255
84.618	321.400	367.514	47.671	62.316	3.365	1.427	35.629
85.912	325.000	374.795	47.723	60.534	3.315	1.556	35.275
87.230	329.000	375.577	48.333	61.480	3.248	1.627	37.869
88.520	332.900	371.936	51.178	61.519	3.645	1.815	35.000
89.815	336.900	377.009	50.827	64.049	3.242	1.519	34.517
91.108	340.900	372.181	51.447	59.702	3.719	1.451	34.640
92.398	344.500	376.321	51.298	62.512	3.207	1.622	33.807
93.690	348.400	378.737	48.662	63.066	3.449	1.740	33.777
94.993	352.400	373.204	50.094	64.061	4.079	1.798	33.034
96.286	356.400	378.846	51.559	62.587	3.675	1.655	34.685
97.578	360.000	371.935	50.829	63.831	3.959	1.472	33.097
98.900	363.900	379.415	48.488	62.890	3.262	1.637	33.504
100.223	367.900	376.120	50.340	62.884	4.496	1.478	34.133
101.528	371.900	371.191	51.969	62.880	3.364	1.395	33.754
102.811	375.800	372.739	52.282	64.918	3.777	1.149	35.574
104.099	379.800	372.336	50.040	63.935	3.885	1.506	35.430
105.432	383.700	378.021	52.927	66.775	3.747	1.480	35.704
106.755	387.700	386.001	51.080	65.099	4.173	1.540	35.467
108.045	391.600	388.067	52.993	64.605	3.859	1.549	34.080
109.364	395.600	393.092	51.832	70.229	3.827	1.430	34.435
110.680	399.200	397.071	52.374	65.729	4.025	1.446	34.741
111.971	403.200	397.811	53.962	69.474	3.598	1.603	35.831
113.269	407.100	408.173	51.267	66.224	3.812	1.784	37.552
114.561	411.100	410.730	51.860	67.411	3.758	1.663	36.412
115.858	415.000	414.238	51.569	67.654	4.154	1.703	37.486
117.174	419.000	411.976	52.406	68.176	3.949	1.635	36.059
118.503	422.900	410.320	51.137	69.324	3.937	1.436	36.617
119.799	426.600	411.590	53.958	68.698	3.810	1.600	36.217
121.093	430.500	407.623	52.661	70.125	4.188	1.256	36.188
122.412	434.500	413.512	55.380	69.232	3.604	1.490	38.525
123.705	438.400	412.487	51.978	71.356	4.232	1.648	36.049
125.016	442.400	411.688	54.116	70.616	4.195	1.685	36.646
126.310	446.400	415.419	52.289	70.185	3.884	1.563	37.833
127.605	450.000	409.016	54.082	70.914	4.245	2.004	37.413
128.898	454.000	417.159	56.429	71.993	4.826	1.521	38.087
130.189	457.900	411.590	54.841	73.001	3.908	1.729	38.673
131.477	461.900	410.052	53.304	73.827	4.252	1.357	38.731
132.767	465.500	420.259	55.060	73.516	4.170	1.307	38.382
134.062	469.500	410.517	56.983	71.775	3.829	2.156	40.056
135.356	473.400	409.820	50.656	71.982	4.416	1.395	36.914
136.649	477.400	411.950	55.809	74.762	3.729	1.772	39.881
137.941	481.000	411.672	56.448	73.667	4.274	1.634	38.552
139.234	485.000	407.783	54.432	74.734	4.083	1.623	40.334
140.531	489.000	403.015	55.702	74.260	4.323	1.535	38.827
141.844	492.900	409.058	55.205	75.836	4.205	1.789	40.488
143.139	496.800	401.300	54.090	75.214	4.339	1.869	40.848
144.433	500.500	399.044	54.647	76.547	4.346	1.700	41.603
145.728	504.400	401.795	53.734	76.812	4.734	1.373	41.299
147.019	508.400	396.124	59.081	77.496	4.342	1.734	39.298
148.311	512.300	397.362	58.358	78.888	4.906	1.575	41.040
149.603	516.000	388.799	57.612	78.839	4.415	1.827	42.797
150.896	519.900	397.084	58.251	79.630	4.163	1.692	40.797
152.212	523.900	398.512	58.896	79.208	4.670	1.630	43.184
153.507	527.800	386.877	58.306	79.186	4.931	1.829	41.445
154.817	531.800	390.525	60.724	81.815	4.293	1.737	44.014
156.110	535.700	391.136	59.073	81.092	4.266	1.866	43.437
157.416	539.400	392.000	60.609	83.184	4.918	1.811	43.139
158.709	543.300	397.993	58.697	83.462	4.870	1.935	44.054
160.001	547.300	392.993	61.403	81.782	4.752	1.770	42.021
161.293	551.200	400.757	62.413	83.082	4.907	1.530	43.816
162.579	554.900	390.370	62.837	84.823	4.573	1.388	44.507
163.872	558.900	395.541	61.062	84.056	4.913	2.151	43.857
165.165	562.800	395.174	62.379	84.966	5.166	1.977	43.958
166.453	566.800	398.109	62.046	84.857	5.052	1.716	43.983
167.747	570.400	398.713	64.029	87.471	4.833	1.996	44.957
169.040	574.400	402.217	61.042	84.314	4.203	1.529	44.821
170.334	578.300	406.077	59.207	89.988	4.888	1.730	46.098
171.626	582.200	405.841	63.488	87.946	5.105	1.616	47.975
172.918	585.900	402.326	63.148	90.639	5.457	1.988	44.622
174.240	589.800	409.157	61.991	89.350	4.778	1.742	46.259
175.533	593.800	407.963	63.868	90.307	5.306	1.798	46.371
176.830	597.700	404.272	64.606	88.846	5.075	1.669	47.833
178.123	601.700	409.323	64.885	90.453	4.909	1.793	45.409
179.419	605.300	412.121	64.745	93.037	5.111	1.709	47.681
180.710	609.300	410.371	67.570	91.006	5.360	2.245	49.364
182.002	613.200	414.187	67.330	93.393	5.142	2.164	47.209
183.298	617.200	416.834	67.247	93.166	5.386	1.607	49.542
184.589	620.800	417.052	67.056	94.250	5.092	1.876	48.011
185.885	624.800	412.315	68.246	94.015	5.891	2.242	48.907
187.179	628.700	421.401	69.320	97.879	4.998	1.822	50.586
188.472	632.700	427.200	70.181	95.716	5.621	2.080	50.288
189.765	636.600	423.766	68.928	98.878	5.523	1.937	50.195
191.053	640.300	422.988	71.121	99.480	4.833	1.914	49.988
192.364	644.200	429.187	71.048	100.291	5.879	1.915	52.114
193.659	648.200	423.688	69.883	99.098	5.687	2.054	50.993
194.955	652.100	432.113	72.617	102.193	5.189	1.977	52.047
196.247	655.800	434.743	72.119	102.119	5.382	1.732	51.652
197.539	659.700	430.516	73.962	103.406	5.629	1.790	52.922
198.834	663.700	432.820	73.799	102.176	5.537	2.390	51.046
200.131	667.600	433.943	72.703	103.730	5.916	2.084	53.154
201.417	671.200	432.128	73.372	107.300	6.194	2.445	54.234
202.722	675.200	434.760	71.803	104.873	6.201	2.103	52.171
204.015	679.200	431.083	73.271	107.579	6.154	2.312	54.570
205.310	683.100	437.079	75.120	109.782	5.955	1.692	53.474
206.605	687.100	441.872	74.389	107.922	6.500	2.150	55.397
207.899	690.700	444.645	75.538	108.690	6.323	2.231	55.001
209.191	694.700	452.375	73.944	109.166	6.094	2.051	55.881
210.487	698.600	445.579	75.425	109.639	6.316	1.895	56.696
211.776	702.600	449.308	74.846	110.061	6.799	2.452	57.324
213.069	706.200	454.472	77.662	111.340	6.326	1.982	57.171
214.360	710.200	457.441	78.620	111.868	6.478	2.576	55.358
215.654	714.100	455.209	77.634	113.240	6.433	2.343	56.948
216.970	718.100	451.469	80.682	115.126	6.370	2.166	57.907
218.265	722.100	459.888	75.691	116.366	5.771	2.387	59.694
219.557	725.700	456.445	79.509	115.624	7.413	2.160	59.594
220.848	729.600	462.706	79.012	120.362	6.537	2.181	58.405
222.143	733.600	461.581	79.415	116.715	6.651	2.520	59.716
223.433	737.500	464.703	80.609	122.631	6.893	2.206	62.926
224.726	741.100	468.757	79.146	122.348	6.904	2.483	59.841
226.046	745.100	465.930	80.219	120.680	6.571	2.294	62.830
227.340	749.000	465.702	80.241	123.016	7.050	2.079	62.582
228.634	753.000	474.021	80.784	121.694	7.388	2.041	62.862
229.927	756.900	472.575	81.938	123.390	7.304	2.749	62.397
231.214	760.500	475.458	78.741	124.952	6.586	2.366	62.145
232.503	764.500	475.692	81.333	128.027	6.965	2.328	62.180
233.833	768.500	482.289	82.814	128.615	6.778	2.282	64.488
235.128	772.400	482.461	85.768	127.242	6.999	2.333	66.555
236.443	776.400	483.192	83.309	129.068	6.655	2.651	65.376
237.734	780.300	487.597	83.187	130.923	7.211	2.203	65.575
239.029	784.000	480.980	84.358	128.457	7.134	2.553	68.440
240.324	787.900	493.638	86.928	130.486	7.861	2.365	67.804
241.615	791.900	492.602	86.273	133.439	7.320	2.553	68.510
242.907	795.800	499.009	86.641	132.682	7.653	2.252	68.579
244.202	799.500	492.909	86.400	137.438	7.302	2.319	69.627
