Mon, Oct 23, 2017	12:15 PM
 Notes: CO_top chamber_4.2E-07_60 sec_25 L_102317
 waiting time: 50.000
 time(s)	 temp (K)	 MS1=1.971	 MS2=17.737	 MS3=27.993	 MS4=125.586	 MS5=109.505	 MS6=125.586	 MS7=109.505	 MS8=125.586
0.000	103.000	5346.528	7623.675	19417.326
0.656	102.900	5381.356	7586.644	19158.076
1.333	102.900	5283.842	7573.711	19317.651
2.004	102.800	5324.586	7586.766	19310.009
2.684	102.800	5334.821	7564.670	19141.506
3.373	102.700	5288.373	7592.098	19328.336
4.027	102.700	5301.854	7553.170	19320.032
4.694	102.600	5337.614	7589.255	19099.182
5.363	102.600	5273.153	7593.546	19330.807
6.022	102.500	5307.073	7583.572	19206.729
6.673	102.400	5300.440	7555.520	19040.900
7.328	102.400	5264.448	7558.854	19204.513
8.008	102.400	5279.710	7572.782	19286.969
8.703	102.300	5347.068	7567.300	18989.802
9.371	102.200	5263.742	7568.389	19202.844
10.060	102.200	5314.534	7549.471	19063.202
10.743	102.100	5283.553	7554.598	19037.347
11.423	102.100	5257.126	7611.355	19208.779
12.107	102.000	5326.351	7547.128	18976.492
12.793	102.000	5244.188	7577.723	18961.731
13.450	101.900	5232.649	7566.005	19121.064
14.115	101.900	5292.063	7541.226	18912.415
14.814	101.900	5241.270	7579.766	19082.498
15.500	101.800	5310.579	7540.334	19095.158
16.154	101.800	5261.598	7506.961	18851.522
16.812	101.700	5236.276	7551.997	18971.945
17.479	101.700	5260.562	7570.261	19122.592
18.132	101.700	5295.320	7522.670	18853.127
18.806	101.600	5228.129	7568.014	19042.709
19.458	101.600	5253.460	7556.902	19109.499
20.138	101.500	5333.893	7516.872	18943.619
20.800	101.500	5233.570	7537.300	19002.869
21.470	101.400	5211.594	7533.532	19149.644
22.136	101.400	5281.037	7522.662	19325.764
22.809	101.400	5245.571	7564.647	21951.969
23.500	101.500	5332.463	7688.226	31908.891
24.167	101.800	5499.585	7652.174	40806.447
24.818	102.300	5525.061	7689.604	45619.017
25.467	103.000	5577.502	7680.040	48225.238
26.119	104.100	5664.879	7678.373	47634.751
26.790	105.600	5648.753	7660.839	46207.466
27.468	107.500	5582.101	7670.901	44464.241
28.123	109.800	5605.493	7648.055	43154.450
28.815	112.400	5577.710	7708.347	43268.811
29.469	115.100	5593.223	7693.309	43103.224
30.122	118.000	5680.413	7728.534	42521.894
30.774	120.900	5678.250	7775.500	42237.591
31.449	123.700	5652.915	7819.600	42454.124
32.101	126.400	5682.834	7805.757	41533.100
32.754	129.100	5693.204	7939.053	42676.578
33.407	131.600	5698.798	8079.888	43823.763
34.060	134.100	5776.995	8131.795	44459.503
34.727	136.600	5776.810	8207.188	44699.572
35.379	139.100	5764.364	8201.943	45120.818
36.032	141.600	5838.965	8207.974	44790.027
36.684	144.000	5844.365	8160.392	43680.516
37.338	146.500	5764.345	8132.801	43880.784
37.989	148.900	5812.799	8092.929	43164.244
38.640	151.200	5854.954	8050.556	42397.663
39.302	153.600	5791.615	8024.822	41638.813
39.948	155.900	5773.002	8000.340	41571.144
40.640	158.200	5844.086	7967.633	40670.486
41.292	160.400	5760.724	7984.583	40242.872
41.955	162.600	5823.826	7975.176	40319.660
42.644	164.800	5849.252	7946.799	39440.769
43.334	167.000	5813.302	7959.937	39335.502
43.986	169.200	5849.311	7927.023	39080.671
44.639	171.300	5879.914	7907.026	37947.599
45.296	173.400	5776.685	7938.314	37465.804
45.958	175.500	5773.502	7908.688	37375.987
46.610	177.600	5882.257	7911.232	36529.471
47.260	179.700	5798.543	7891.569	36121.103
47.905	181.800	5845.616	7927.259	35840.315
48.603	183.900	5920.029	7877.454	35202.957
49.290	186.300	5860.435	7885.374	34664.346
49.937	188.000	5848.010	7928.689	34729.072
50.591	190.000	5907.364	7877.471	33929.185
51.255	192.000	5824.261	7888.931	33553.727
51.905	194.100	5848.593	7907.469	33655.390
52.596	196.400	5887.058	7927.428	33035.570
53.245	198.400	5868.538	7883.843	32575.339
53.919	200.500	5872.917	7918.966	32592.189
54.571	202.500	5913.855	7910.189	31858.544
55.244	204.500	5842.153	7881.141	31586.608
55.896	206.500	5823.852	7936.642	31610.986
56.584	208.500	5870.148	7901.544	31059.867
57.256	210.500	5866.608	7913.610	30767.132
57.907	212.500	5830.964	7941.104	30824.154
58.559	214.500	5889.431	7902.058	30452.542
59.250	216.500	5843.149	7926.031	30036.519
59.905	218.500	5829.751	7950.903	30046.186
60.569	220.400	5847.802	7936.130	29740.536
61.259	222.400	5855.357	7960.412	29422.775
61.957	224.800	5815.609	7987.121	29454.934
62.610	226.700	5921.204	7960.843	29033.180
63.264	228.700	5829.540	7996.186	28826.225
63.918	230.700	5811.495	8023.509	28862.893
64.573	232.700	5903.456	8007.514	28614.825
65.228	234.700	5896.745	8034.763	28387.798
65.881	236.300	5828.722	8037.975	28480.647
66.561	238.600	5903.012	8026.974	28246.806
67.262	240.600	5856.828	8036.963	27888.899
67.916	242.600	5848.934	8062.410	28084.327
68.586	244.600	5937.293	8047.021	27550.020
69.244	246.600	5887.241	8085.217	27486.261
69.912	248.600	5866.573	8117.644	27600.877
70.618	250.900	5935.468	8116.782	27397.323
71.307	252.900	5895.375	8125.242	27393.413
71.959	254.800	5905.750	8162.669	27467.093
72.672	256.800	5991.074	8144.649	27136.850
73.334	258.800	6006.737	8205.647	27416.848
73.996	260.800	6025.889	8203.394	27232.309
74.652	262.800	6022.058	8196.526	26886.578
75.333	264.800	5993.942	8255.283	27084.898
76.012	267.100	6062.285	8248.193	26993.845
76.666	269.000	6057.598	8255.310	26630.716
77.357	271.000	5977.890	8279.046	26883.420
78.011	273.000	6029.391	8323.983	26813.700
78.666	274.900	6016.945	8297.526	26603.256
79.335	276.900	5978.162	8340.043	26841.517
79.991	278.900	6012.718	8369.140	26816.986
80.680	280.900	6063.557	8301.079	26505.033
81.344	282.900	5953.864	8384.482	26753.750
81.998	284.900	5993.592	8421.223	26685.623
82.652	286.900	6009.728	8391.795	26430.575
83.305	288.900	5913.913	8431.621	26502.893
83.963	290.900	5931.975	8458.826	26685.317
84.651	292.800	5970.105	8443.598	26466.479
85.306	294.800	5880.021	8489.758	26552.692
85.952	296.800	5905.789	8519.576	26889.724
86.633	298.700	5973.393	8480.805	26665.881
87.286	300.700	5902.026	8550.552	26725.717
87.941	302.700	5875.338	8556.618	27072.505
88.594	304.700	5932.318	8549.323	26961.571
89.246	306.600	5875.459	8592.212	27070.964
89.913	308.600	5850.787	8621.337	27544.429
90.592	310.600	5892.696	8628.356	27382.370
91.246	312.600	5832.878	8650.609	27370.704
91.900	314.600	5820.423	8674.380	27906.972
92.553	316.500	5867.422	8662.620	27929.311
93.221	318.500	5880.584	7600.043	26740.542
93.883	320.500	5762.739	8663.558	28026.860
94.537	322.500	5859.159	8706.510	28282.111
95.187	324.400	5847.686	8757.797	28278.061
95.841	326.400	5785.021	8772.702	28805.707
96.495	328.400	5845.890	8795.013	28971.204
97.146	330.400	5849.023	8823.400	28954.990
97.801	332.400	5806.408	8861.114	29203.046
98.454	334.300	5804.942	8871.719	29618.661
99.106	336.300	5885.164	8856.076	29369.919
99.807	338.300	5799.567	8932.876	29836.506
100.462	340.300	5838.033	8952.524	29950.522
101.114	342.300	5889.343	8915.386	29949.045
101.768	344.200	5811.904	8980.609	29976.798
102.471	346.200	5825.019	9014.441	30520.606
103.125	348.200	5885.300	8979.877	30408.678
103.799	350.200	5844.503	9024.459	30602.450
104.449	352.200	5812.111	9063.782	30912.328
105.101	354.200	5916.904	9034.722	30794.592
105.753	356.100	5863.097	9082.158	30944.577
106.407	358.100	5880.207	9097.438	31391.002
107.122	360.100	5950.943	9118.788	31377.896
107.776	362.100	5903.362	9149.687	31465.841
108.427	364.100	5891.383	9213.310	32024.360
109.077	366.000	5973.428	9157.856	31788.685
109.727	368.000	5957.327	9170.253	31961.684
110.380	370.000	5920.117	9228.935	32454.037
111.029	372.000	6007.911	9254.025	32826.527
111.683	373.900	6029.412	9244.046	32686.108
112.332	375.900	5957.321	9293.838	33506.717
112.984	377.900	6041.723	9332.467	33647.850
113.635	379.900	6119.557	9333.352	33663.210
114.284	381.900	6094.907	9394.017	34155.983
114.937	383.500	6135.568	9375.635	34748.534
115.589	385.500	6203.540	9394.649	34717.087
116.265	387.800	6163.373	9406.655	35200.512
116.917	389.400	6220.724	9458.124	35939.914
117.571	391.400	6383.321	9436.542	35901.959
118.252	393.700	6315.010	9482.779	36357.478
118.906	395.700	6355.214	9512.866	37217.991
119.560	397.700	6473.613	9514.457	37380.992
120.207	399.300	6547.461	9558.007	37710.459
120.858	401.300	6488.181	9595.294	38610.314
121.513	403.300	6605.355	9599.738	38938.252
122.169	405.200	6638.665	9598.795	39000.228
122.825	407.200	6545.101	9639.264	39637.280
123.476	409.200	6568.488	9673.627	39978.909
124.127	411.200	6623.796	9614.152	40025.206
124.780	413.200	6555.916	9697.388	40355.475
125.431	415.100	6509.077	9740.501	40918.324
126.085	417.100	6525.505	9693.853	40675.619
126.753	419.100	6405.270	9752.901	40756.393
127.404	421.000	6363.427	9770.643	41419.376
128.057	423.000	6431.094	9782.019	41255.878
128.710	425.000	6338.846	9793.140	41187.433
129.375	427.000	6241.555	9798.139	42011.532
130.029	429.000	6267.754	9804.090	41973.183
130.683	430.900	6218.147	9828.980	41685.950
131.360	432.900	6147.480	9865.014	42487.187
132.014	434.900	6233.888	9873.239	42784.418
132.695	436.900	6214.543	9863.033	42632.447
133.355	438.800	6166.482	9924.017	43404.658
134.006	440.800	6174.593	9906.077	43704.919
134.660	442.800	6178.607	9907.706	43438.269
135.328	444.800	6100.965	9940.605	44230.107
136.005	446.800	6180.763	9951.785	44689.179
136.656	448.800	6168.793	9974.952	44437.201
137.303	450.700	6130.942	9992.176	45014.889
137.956	452.700	6115.240	10009.785	45641.993
138.634	454.700	6186.955	9990.558	45276.928
139.286	456.700	6122.957	10003.039	45740.688
139.937	458.700	6077.670	10051.343	46378.249
140.589	460.600	6209.433	10005.571	46253.279
141.243	462.600	6167.088	10041.102	46425.387
141.895	464.600	6120.100	10062.611	47231.451
142.585	466.600	6157.040	10030.509	46785.968
143.238	468.600	6125.512	10059.198	47027.464
143.890	470.500	6079.844	10104.209	48042.546
144.541	472.500	6201.562	10090.160	48360.499
145.193	474.500	6222.257	10087.531	48385.488
145.847	476.500	6109.965	10136.746	49077.039
146.495	478.100	6163.813	10144.025	49755.560
147.146	480.100	6184.940	10091.504	49462.266
147.800	482.100	6074.242	10149.016	50164.031
148.453	484.100	6125.907	10130.756	51140.649
149.105	486.100	6189.517	10118.997	50992.983
149.774	488.000	6117.611	10164.867	51418.444
150.429	490.000	6166.499	10155.545	52079.784
151.079	492.000	6194.367	10149.027	51277.311
151.736	494.000	6167.788	10165.333	50302.336
152.391	496.000	6097.153	10178.024	49720.433
153.046	497.900	6192.577	10202.120	47668.948
153.701	499.900	6176.848	10155.116	45456.601
154.440	502.200	6097.477	10174.874	43050.992
155.116	504.200	6127.652	10183.270	39807.031
155.780	506.200	6020.938	10132.655	36963.440
156.487	508.200	6040.431	10166.841	34050.640
157.140	510.100	6003.682	10186.519	30833.680
157.794	512.100	5845.231	10153.915	28305.572
158.448	514.100	5859.499	10156.437	26235.287
159.100	516.100	5847.014	10187.817	24357.451
159.757	518.100	5780.017	10153.596	23033.561
160.409	520.000	5747.033	10181.191	22432.387
161.060	522.000	5775.872	10031.510	22004.927
161.716	524.000	5843.317	10168.489	21729.501
162.369	526.000	5790.668	10191.732	21739.028
163.025	527.900	5860.344	10160.326	21689.534
163.680	529.900	5840.281	10181.665	21386.458
164.333	531.900	5777.819	10198.835	21487.789
164.985	533.900	5808.617	10173.114	21393.412
165.638	535.500	5788.042	10215.652	21030.117
166.289	537.500	5715.213	10206.072	21131.041
166.942	539.500	5732.157	10212.453	21302.945
167.600	541.400	5773.530	10195.571	21038.026
168.270	543.400	5679.449	10192.389	20958.717
168.925	545.400	5689.821	10255.792	21165.124
169.581	547.400	5745.932	10199.607	20850.228
170.235	549.300	5690.105	10213.655	20770.739
170.915	551.300	5651.853	10258.903	20966.893
171.578	553.300	5684.997	10218.305	20730.428
172.244	555.600	5610.444	10231.152	20633.873
172.898	557.300	5589.010	10261.673	20816.489
173.586	559.600	5641.163	10214.698	20630.027
174.247	561.600	5550.670	10268.333	20593.779
174.902	563.500	5578.744	10270.584	20789.411
175.586	565.500	5619.854	10250.940	20451.857
176.257	567.500	5554.907	10277.336	20596.454
176.909	569.500	5537.126	10272.929	20743.381
177.565	571.400	5606.934	10263.344	20556.818
178.224	573.400	5559.623	10284.230	20474.235
178.877	575.400	5525.550	10249.106	20685.558
179.532	577.400	5597.428	10286.315	20605.891
180.184	579.400	5629.779	10291.972	20407.088
180.830	581.300	5543.007	10292.696	20683.100
181.485	583.300	5577.603	10309.112	20620.335
182.136	585.000	5592.442	10275.615	20378.317
182.789	587.000	5544.751	10300.814	20443.642
183.442	588.900	5593.667	10301.644	20644.674
184.097	590.900	5658.543	10292.225	20458.582
184.751	592.900	5529.510	10301.852	20473.967
185.428	594.900	5559.545	10324.048	20683.100
186.082	596.900	5648.882	10302.836	20387.219
186.736	598.800	5601.988	10330.928	20390.671
187.391	600.800	5564.469	10308.731	20571.465
188.044	602.800	5622.010	10288.553	20554.971
188.698	604.800	5654.329	10310.104	20366.574
189.353	606.800	5563.520	10281.517	20504.395
190.006	608.700	5592.757	10331.412	20463.804
190.659	610.700	5579.841	10316.134	20274.718
191.325	612.700	5560.540	10313.974	20501.898
191.978	614.600	5567.625	10339.450	20484.819
192.628	616.600	5632.570	10306.416	20323.881
193.278	618.600	5494.300	10334.278	20286.130
193.930	620.600	5520.931	10340.905	20482.603
194.586	622.600	5601.966	10318.356	20296.816
195.241	624.500	5565.282	10336.650	20290.639
195.894	626.500	5526.849	10339.037	20491.455
196.548	628.100	5617.905	10314.656	20371.923
197.202	630.100	5580.072	10342.850	20151.315
197.855	632.100	5478.213	10350.492	20355.315
198.506	634.100	5577.720	10352.661	20409.661
199.161	636.100	5554.005	10348.346	20176.457
199.817	638.000	5489.001	10359.499	20305.413
200.470	640.000	5547.009	10358.565	20467.395
201.121	642.000	5595.452	10343.180	20245.717
201.771	644.000	5557.008	10356.931	20284.080
202.423	646.000	5571.149	10369.404	20488.958
203.084	647.900	5605.764	10359.030	20225.696
203.758	649.900	5539.478	10359.500	20203.789
204.413	651.900	5488.682	10375.321	20378.151
205.092	653.900	5587.504	10359.186	20150.729
205.739	655.900	5560.536	10365.495	20210.361
