Mon, Oct 09, 2017	11:16 AM
 Notes: GUA_ 4e-09_30s_100917
 waiting time: 50.000
 time(s)	 temp (K)	 MS1=1.994	 MS2=17.798	 MS3=26.922	 MS4=27.907	 MS5=28.936	 MS6=30.937	 MS7=78.871	 MS8=125.586
0.000	98.800	2039.791	675.705	267.438	6600.090	767.611	178.410	112.869	129.108
1.215	98.800	1863.328	654.155	268.062	6569.433	770.757	179.047	112.830	130.177
2.211	98.800	1800.932	652.066	269.107	6621.945	772.362	179.875	112.703	128.827
3.180	98.800	1795.876	657.033	267.782	6602.854	762.593	178.627	113.556	129.974
4.173	98.800	1798.894	657.785	269.374	6607.566	770.808	180.435	113.353	129.388
5.160	98.800	1799.378	658.842	269.960	6595.263	772.973	179.786	113.085	132.062
6.127	98.800	1795.659	660.408	271.017	6599.771	777.227	181.263	113.327	129.974
7.108	98.900	1788.794	662.217	267.362	6553.347	766.681	178.334	113.340	130.279
8.082	98.900	1788.043	659.810	268.941	6487.270	753.028	177.404	113.518	131.566
9.041	98.900	1783.139	661.071	269.438	6463.440	756.441	177.022	113.263	131.846
10.002	99.000	1762.277	655.339	271.323	6567.510	753.053	177.582	113.645	131.846
10.977	99.200	1752.890	654.894	269.247	6885.361	770.413	175.354	112.486	131.540
11.936	99.900	1764.136	660.396	266.687	7626.011	808.342	178.843	112.397	132.495
12.929	101.100	1766.671	655.951	266.623	7603.238	802.203	177.302	112.588	132.113
13.888	102.700	1747.095	659.186	270.533	7604.945	812.685	178.334	112.728	132.546
14.885	105.400	1763.105	660.905	272.838	8011.199	824.378	179.544	113.238	133.119
15.846	108.800	1779.369	667.082	270.673	7948.319	832.580	180.868	113.556	132.202
16.807	112.700	1758.978	667.541	269.387	7571.244	826.097	179.760	112.869	131.400
17.798	117.000	1749.948	669.591	271.119	7278.166	800.471	176.869	112.601	132.432
18.789	121.400	1737.606	668.445	272.978	7108.261	785.302	177.926	112.843	132.827
19.776	125.600	1748.432	673.056	275.513	7022.456	778.807	176.895	113.684	133.540
20.732	129.800	1739.326	690.084	275.144	7002.829	774.094	176.856	113.238	132.737
21.732	133.800	1739.670	701.598	271.870	6940.573	770.846	178.945	113.009	132.495
22.691	137.300	1737.899	735.846	274.481	6893.257	760.211	176.793	113.123	131.515
23.648	141.100	1737.797	759.625	279.907	6815.285	768.872	179.582	113.556	134.533
24.604	144.900	1729.863	789.671	283.359	6763.868	765.000	182.702	114.142	134.368
25.561	148.200	1741.516	795.810	283.486	6691.066	761.956	185.479	114.193	134.941
26.538	151.800	1732.308	783.888	283.932	6673.897	751.232	182.894	113.314	136.673
27.523	155.300	1741.198	771.037	287.613	6655.481	754.276	182.218	114.410	138.341
28.482	158.800	1725.863	758.848	288.326	6641.700	754.671	181.034	113.837	139.131
29.439	162.200	1736.040	750.532	293.599	6641.878	758.568	179.085	114.715	143.525
30.398	165.200	1706.733	747.704	300.043	6572.745	763.268	181.836	116.779	147.397
31.355	168.400	1701.919	742.533	311.735	6617.309	775.966	184.409	120.116	155.001
32.311	171.600	1699.957	740.393	327.019	6615.208	780.946	187.224	125.338	161.827
33.303	174.800	1702.632	737.222	351.575	6648.183	792.677	189.848	126.879	175.850
34.295	178.000	1714.795	744.100	389.135	6662.868	799.108	191.580	124.166	206.430
35.278	181.100	1713.293	748.698	478.201	6754.647	842.272	202.660	123.503	270.011
36.238	184.200	1726.984	753.321	651.200	6928.321	906.171	223.217	128.483	409.182
37.198	186.900	1757.513	773.763	998.281	7195.786	1051.125	257.223	139.628	682.302
38.180	190.000	1816.853	802.433	1681.821	7627.947	1303.064	326.077	160.172	1291.449
39.139	193.000	1930.283	843.062	2835.119	8186.873	1670.957	440.272	193.248	2392.183
40.100	196.000	2025.272	907.024	4575.771	8973.221	2184.681	620.212	248.728	4169.491
41.057	198.700	2131.545	966.453	6629.358	9915.808	2766.597	815.640	311.162	6388.563
42.040	201.700	2161.450	1053.455	8442.468	10978.499	3169.540	941.222	341.972	7045.203
43.163	205.400	2070.295	1063.084	6823.360	10498.997	2513.091	621.562	215.932	2282.064
44.146	208.100	1890.622	927.912	2887.287	8056.630	1497.932	346.684	149.995	826.008
45.106	211.100	1727.914	834.070	1652.298	7421.705	1300.975	304.807	141.984	668.305
46.062	214.100	1726.093	814.074	1465.263	7242.465	1247.253	293.115	138.303	639.674
47.018	217.100	1719.279	812.800	1381.419	7167.193	1223.398	290.453	138.163	631.688
48.021	220.100	1741.224	816.799	1377.012	7160.952	1217.322	286.301	137.794	630.083
48.979	222.700	1733.785	811.845	1387.583	7181.725	1216.393	278.621	139.118	645.379
49.950	225.700	1756.023	818.506	1420.329	7218.037	1239.382	296.095	140.889	682.952
50.908	228.700	1765.372	825.779	1459.773	7270.536	1258.512	300.629	141.704	688.913
51.898	231.700	1748.203	820.391	1469.377	7206.765	1238.312	297.471	138.940	657.288
52.852	234.600	1748.407	813.157	1335.962	7025.589	1178.196	276.443	136.062	532.445
53.811	237.300	1713.356	789.632	1081.208	6808.254	1090.493	256.905	130.037	426.236
54.765	240.300	1697.525	782.551	910.705	6616.023	1028.632	244.512	127.286	373.698
55.749	243.200	1674.141	776.527	821.958	6601.453	1008.356	239.762	126.764	342.354
56.719	246.200	1687.578	775.444	767.255	6593.021	986.105	236.909	125.134	324.204
57.710	249.200	1691.908	780.258	725.428	6543.909	976.578	233.088	124.140	311.723
58.690	252.200	1693.704	779.074	696.618	6571.433	973.763	232.808	123.669	300.209
59.701	255.100	1713.343	780.373	690.097	6592.282	968.669	230.146	123.058	293.701
60.653	257.800	1723.112	781.876	666.497	6583.571	956.416	229.776	122.294	286.887
61.631	260.800	1745.465	779.991	663.720	6611.285	945.858	224.529	123.440	286.505
62.629	263.700	1748.152	778.692	650.143	6647.176	948.214	226.312	122.510	281.728
63.588	266.700	1761.691	781.838	640.158	6605.503	939.884	226.707	123.338	279.945
64.548	269.600	1761.882	785.659	633.929	6642.298	935.681	227.611	123.045	278.710
65.505	272.600	1777.764	789.696	626.886	6639.152	938.636	222.657	123.351	277.105
66.500	275.600	1788.871	793.925	634.070	6639.840	940.101	223.421	122.268	276.990
67.448	278.200	1802.104	784.436	624.683	6643.037	927.887	222.962	121.797	273.310
68.403	281.200	1834.378	790.027	622.696	6585.341	942.177	224.695	122.383	271.183
69.362	284.200	1847.624	794.969	616.238	6664.014	933.223	224.835	122.102	272.036
70.332	287.200	1868.028	792.396	611.157	6625.792	930.676	224.911	121.631	268.342
71.290	289.800	1899.945	786.601	610.991	6643.355	936.395	224.211	121.746	263.936
72.247	292.800	1924.310	793.008	609.157	6654.322	927.403	219.893	122.548	266.827
73.206	295.700	1979.013	793.606	597.720	6629.205	926.473	222.669	121.911	263.910
74.163	298.400	2026.915	805.005	600.241	6646.310	918.449	222.351	119.937	262.254
76.582	305.600	2165.347	810.253	600.585	6614.622	630.223	211.245	122.128	264.025
81.083	319.100	2519.522	827.714	597.401	6655.481	924.894	221.880	122.217	265.247
85.518	332.600	2731.228	839.203	576.985	6618.035	899.943	221.281	122.574	255.568
86.474	335.200	2725.178	825.982	572.298	6590.958	905.139	218.810	122.421	251.008
87.819	339.200	2874.818	825.664	558.173	6633.510	894.466	220.300	124.357	243.723
92.706	354.000	2473.888	813.819	549.398	6636.873	897.459	223.994	123.274	239.533
93.664	357.000	2462.922	811.539	549.767	6644.540	898.300	219.333	123.223	239.609
94.679	360.000	2421.095	803.604	542.354	6645.330	900.847	225.866	124.420	240.373
95.674	363.000	2423.948	813.271	544.634	6661.760	897.447	222.466	124.981	238.679
96.636	365.900	2448.950	813.029	544.048	6661.123	889.040	219.918	125.720	233.788
97.597	368.600	2474.244	815.640	540.686	6658.435	891.842	225.293	125.401	238.921
98.590	371.500	2485.605	813.322	536.266	6638.643	892.186	221.918	124.446	236.527
99.560	374.500	2489.515	823.499	536.712	6702.465	890.149	221.345	124.293	234.298
100.519	377.500	2534.857	820.646	540.011	6687.232	897.650	224.172	124.943	238.450
101.526	380.400	2574.404	822.760	532.445	6745.132	896.924	223.599	124.688	235.355
102.481	383.400	2612.651	830.122	531.452	6784.908	902.732	222.822	124.471	235.597
103.443	386.400	2660.757	822.416	530.522	6823.984	905.687	223.064	124.420	236.896
104.404	389.000	2706.290	826.454	531.821	6945.184	889.741	221.370	125.299	231.801
105.367	392.000	2724.401	832.936	529.720	7020.889	905.521	222.377	124.077	235.100
106.333	395.000	2749.976	827.167	528.293	7111.891	916.857	224.363	124.433	233.444
107.289	397.600	2794.897	820.174	527.949	7250.196	926.511	223.230	124.955	230.795
108.248	400.600	2815.237	827.664	527.848	7430.850	932.867	225.217	123.809	231.177
109.206	403.500	2819.479	825.995	522.218	7548.420	945.387	224.147	124.943	229.292
110.167	406.500	2814.804	823.906	521.416	7733.353	933.847	222.300	123.529	231.152
111.125	409.100	2805.519	818.379	526.141	7832.430	953.270	224.440	124.726	229.993
112.087	412.100	2754.077	816.888	525.708	7979.995	955.665	222.351	122.905	228.592
113.050	415.000	2694.827	816.876	521.135	8127.572	956.009	222.185	123.096	230.031
114.015	418.000	2647.919	814.112	518.372	8085.287	957.066	218.798	123.733	234.196
114.980	420.700	2570.392	806.088	518.715	8112.123	950.978	219.740	121.618	232.082
116.003	424.000	2529.470	804.929	518.499	8191.331	953.958	219.091	123.542	229.649
116.966	426.600	2481.428	798.599	514.653	8151.911	963.243	221.026	122.204	230.400
117.936	429.500	2449.039	805.235	512.551	8199.253	959.397	221.625	123.402	228.197
118.896	432.500	2426.776	803.566	514.028	8210.996	960.466	219.676	122.727	229.216
119.856	435.500	2417.020	803.923	510.704	8212.422	959.180	218.708	121.873	229.509
120.818	438.100	2358.852	795.428	512.411	8237.679	952.532	218.657	122.039	227.395
121.779	441.100	2358.750	793.746	512.513	8259.292	961.880	219.027	122.586	229.420
122.739	444.000	2362.380	796.854	516.678	8245.321	962.810	217.613	122.370	226.096
127.180	457.200	2300.366	788.703	508.463	8219.529	956.684	217.728	121.759	224.325
128.183	460.200	2309.498	790.358	511.468	8178.238	965.026	216.811	121.962	224.695
129.162	463.200	2305.677	785.582	510.450	8177.626	952.544	218.632	122.077	223.523
130.118	466.200	2308.085	784.245	507.036	8181.001	951.029	215.473	122.090	224.529
131.079	469.100	2303.232	783.939	505.712	8139.659	939.209	215.461	122.141	224.236
132.039	471.800	2300.710	784.461	511.800	8101.921	949.921	214.531	120.701	223.574
132.999	474.700	2290.674	786.639	505.380	8075.595	953.347	216.123	121.427	223.446
133.958	477.700	2292.126	786.474	504.336	8051.752	943.221	216.199	122.548	226.325
134.918	480.700	2286.789	782.194	504.527	7996.590	947.832	214.314	122.166	225.319
135.880	483.300	2264.539	779.673	505.737	7956.865	953.461	213.678	122.930	224.860
136.830	486.300	2275.785	779.367	502.795	7943.365	948.965	218.798	121.771	222.198
137.789	489.200	2279.784	784.589	504.744	7848.173	933.070	214.327	122.064	221.956
138.748	491.900	2275.772	779.252	498.821	7798.424	929.186	217.753	121.300	223.828
139.726	494.900	2263.902	789.390	511.609	7712.797	930.561	213.206	121.300	221.485
140.732	498.100	2284.726	786.614	503.190	7619.948	922.932	213.117	122.217	221.956
141.691	500.800	2264.844	785.646	504.043	7584.477	914.857	213.321	121.580	222.542
142.651	503.800	2270.792	783.570	508.526	7502.849	901.217	211.640	121.287	222.606
143.639	506.700	2263.787	782.118	506.909	7469.212	899.140	211.359	121.478	221.116
144.598	509.700	2287.770	783.863	503.559	7397.544	887.232	213.168	121.491	221.065
145.572	512.700	2257.852	776.539	505.113	7327.927	893.740	212.047	121.224	225.663
146.530	515.300	2268.360	776.527	501.521	7251.050	888.506	211.780	121.950	223.816
147.492	518.300	2280.752	787.136	502.617	7215.897	889.716	210.353	121.020	224.605
148.454	521.200	2262.628	788.461	506.438	7201.734	882.710	210.786	122.166	220.657
149.432	524.200	2261.240	784.296	505.533	7150.877	892.658	211.920	122.128	224.669
150.392	526.800	2247.816	785.060	503.266	7113.394	885.538	211.729	122.523	224.045
151.351	529.800	2247.561	782.551	502.196	7115.050	893.052	211.449	121.937	223.727
152.333	532.800	2231.984	785.939	502.846	7065.339	878.851	202.826	121.873	223.841
153.341	535.700	2236.187	784.729	508.233	7075.873	894.313	210.060	122.179	223.128
154.304	538.700	2221.006	786.206	508.030	7040.758	879.374	212.366	122.383	219.969
155.265	541.600	2225.119	786.436	504.705	7000.358	879.488	211.105	122.306	222.262
156.246	544.600	2216.853	779.189	500.515	6999.721	877.463	211.652	123.070	222.937
157.205	547.300	2196.755	780.768	506.081	7039.446	880.278	214.595	121.134	223.625
158.164	550.200	2207.097	782.169	506.998	6977.942	874.011	211.703	122.102	225.471
159.126	553.200	2205.263	789.518	510.679	6952.698	880.520	212.952	122.485	224.249
160.087	555.800	2211.453	784.207	509.660	6967.434	879.896	210.570	122.561	223.574
161.046	558.800	2183.955	785.506	508.323	6977.942	877.985	212.633	123.019	226.478
162.035	561.800	2175.702	783.417	511.774	6960.289	879.208	211.691	123.109	224.835
162.995	564.700	2157.846	791.479	513.812	6954.520	879.170	210.926	121.618	226.923
163.953	567.700	2150.751	784.895	509.367	6966.059	866.739	212.213	124.089	225.943
164.913	570.300	2148.739	780.233	509.711	6941.974	866.892	212.544	123.809	226.987
165.875	573.300	2154.012	787.786	506.132	6934.549	880.533	212.213	123.453	224.962
166.832	576.300	2156.661	788.957	505.877	6974.312	875.387	212.442	123.631	226.299
167.807	579.300	2129.596	780.806	508.272	6939.631	875.221	214.454	123.045	222.453
168.766	581.900	2147.198	784.767	509.265	6971.064	881.857	214.442	123.300	223.523
169.723	584.900	2142.447	783.048	511.163	6967.816	886.328	215.957	122.217	223.905
170.684	587.800	2137.136	784.118	509.380	6948.737	866.459	212.875	121.708	222.415
171.644	590.800	2147.147	785.964	508.819	6966.403	876.788	213.856	122.192	224.771
172.607	593.400	2146.918	787.913	504.909	6952.775	880.380	214.887	123.325	225.803
173.566	596.400	2141.568	787.633	512.271	6971.867	875.247	211.589	122.879	226.134
174.524	599.400	2155.324	791.288	512.373	6984.208	882.800	213.079	122.930	224.567
175.485	602.000	2150.356	794.727	510.029	7026.290	876.686	215.142	123.733	226.287
176.446	605.000	2142.867	786.627	509.150	7007.414	875.323	215.079	123.045	226.592
177.406	608.000	2150.853	786.894	508.475	7008.216	881.144	214.633	123.987	224.440
178.365	610.900	2160.648	796.829	511.761	6998.231	876.177	215.155	123.287	224.746
179.324	613.600	2160.342	789.874	510.972	6981.190	885.882	213.856	123.414	225.319
180.283	616.500	2160.915	793.555	510.946	6982.986	885.079	214.276	122.777	224.822
181.244	619.500	2173.995	795.657	509.915	7011.133	880.545	215.728	123.414	223.650
182.204	622.500	2167.551	787.747	510.373	7017.259	894.020	216.365	124.115	223.523
183.162	625.100	2161.654	792.651	508.959	7018.941	877.743	213.678	124.077	224.873
184.144	628.100	2175.728	792.447	511.647	7032.721	871.999	216.021	123.300	225.255
185.103	631.100	2168.914	792.384	509.647	7025.067	872.738	213.843	123.376	228.694
186.060	634.100	2185.662	797.223	517.735	7035.536	874.699	214.034	123.898	226.580
187.018	636.700	2188.324	799.414	514.028	7034.135	877.399	211.767	123.172	225.510
188.012	639.700	2177.842	798.357	516.563	7026.863	880.061	217.027	122.714	224.720
188.972	642.600	2188.222	796.548	513.468	7048.744	873.133	214.620	123.631	225.624
189.931	645.600	2204.728	806.521	515.238	7063.493	881.437	215.486	123.542	228.592
190.890	648.200	2174.288	799.860	509.431	7063.773	881.169	216.454	122.816	227.815
191.847	651.200	2189.687	803.490	515.391	7079.451	884.557	213.385	123.593	225.739
192.842	654.100	2197.290	807.158	516.792	7060.640	883.194	213.779	123.784	229.827
193.821	657.100	2178.479	800.497	512.984	7101.014	877.017	212.952	123.937	226.936
194.780	660.000	2203.047	803.999	517.098	7064.333	876.355	211.512	122.574	227.790
195.739	663.000	2192.005	799.389	515.901	7088.354	884.685	216.174	122.930	227.790
196.699	665.600	2188.528	804.076	515.964	7104.466	880.915	213.066	123.771	226.974
197.655	668.600	2201.226	800.828	516.321	7089.208	879.119	211.754	123.172	227.064
198.615	671.500	2197.660	802.382	517.849	7071.211	875.782	212.302	121.746	226.809
199.592	674.500	2187.980	799.478	514.130	7092.863	875.909	216.148	123.937	227.420
200.548	677.100	2206.524	806.063	519.441	7052.883	891.817	213.830	123.733	226.057
201.503	680.100	2205.671	803.655	516.359	7108.847	869.172	212.493	123.580	227.726
202.465	683.100	2197.507	807.565	514.996	7069.708	874.394	213.117	122.332	229.853
203.423	685.700	2188.362	808.597	523.326	7070.485	875.986	215.155	121.975	226.987
204.382	688.700	2188.196	812.507	513.481	7062.053	871.923	210.748	123.453	226.057
205.344	691.700	2180.911	805.107	515.162	7070.612	880.647	210.379	122.714	229.917
206.305	694.600	2170.225	804.203	512.857	7033.511	875.018	211.831	123.185	228.630
207.292	697.600	2152.178	806.241	520.104	7027.576	873.362	210.022	121.962	229.420
208.251	700.200	2162.189	811.068	517.798	7002.396	870.471	212.085	122.841	225.803
209.208	703.200	2128.068	801.503	518.066	7020.635	875.412	212.493	123.070	223.357
210.166	706.200	2117.522	811.234	517.582	7023.908	867.197	210.430	122.383	230.337
211.149	709.100	2086.241	806.967	517.875	7004.943	868.891	209.857	122.663	228.821
212.105	711.800	2093.972	814.239	516.830	6950.304	863.708	208.876	123.427	227.267
213.079	714.700	2076.141	805.935	520.766	6960.149	868.446	210.124	122.905	229.203
214.037	717.700	2074.218	816.213	519.862	6966.339	872.432	208.672	122.001	229.178
214.995	720.700	2040.772	812.533	523.797	6941.223	865.211	208.927	122.497	231.865
215.956	723.300	2036.403	810.100	519.862	6944.139	870.369	212.327	122.892	228.757
216.914	726.300	2010.676	802.764	522.205	6950.520	863.899	209.818	122.344	231.483
217.874	729.300	2005.721	809.591	519.021	6896.276	863.746	209.576	122.077	228.388
218.834	732.200	1977.497	812.736	521.034	6874.624	854.423	209.118	121.568	226.962
219.793	734.800	1975.956	813.475	521.008	6889.360	865.809	208.659	121.478	228.987
220.790	737.800	1941.441	809.119	520.855	6874.038	864.192	209.564	121.478	231.216
221.751	740.800	1950.980	810.788	524.625	6884.915	859.237	208.443	122.408	228.223
222.713	743.700	1940.829	802.827	522.626	6921.634	859.772	210.162	122.918	228.388
223.717	746.700	1930.525	808.839	524.816	6905.688	859.683	210.608	121.988	229.241
224.679	749.700	1918.477	809.909	524.001	6901.829	857.441	209.513	120.918	229.547
225.641	752.300	1915.802	809.056	526.077	6930.002	859.008	209.908	121.249	230.477
226.604	755.300	1914.248	812.927	523.899	6872.395	857.989	210.379	121.822	230.681
227.600	758.200	1907.714	814.825	528.599	6934.065	857.365	208.672	121.644	229.012
228.560	761.200	1900.060	812.074	530.892	6952.889	858.855	207.742	120.905	228.668
229.521	764.200	1910.160	811.030	525.058	6898.441	867.134	207.742	121.491	229.789
230.480	766.800	1883.324	810.253	524.167	6946.890	863.185	208.698	121.478	229.509
231.441	769.800	1895.042	814.239	525.058	6930.575	859.938	206.481	122.344	230.273
232.398	772.700	1904.046	819.512	524.676	6919.711	860.460	205.284	121.376	230.490
233.359	775.700	1887.018	811.297	526.039	6921.711	858.588	207.144	120.625	230.528
234.316	778.300	1894.685	816.468	525.924	6940.115	863.529	207.118	120.752	230.821
235.276	781.300	1886.992	820.633	527.364	6977.152	857.047	209.080	121.249	229.929
236.236	784.300	1885.795	815.105	527.453	6962.416	861.250	211.092	121.122	231.419
237.216	787.200	1884.674	823.473	521.034	6990.666	865.121	207.615	120.943	232.846
238.174	789.900	1884.509	827.727	530.611	6994.588	859.390	209.602	121.351	233.457
239.181	793.200	1882.751	822.798	532.700	6999.403	864.523	206.736	121.275	234.896
240.139	795.800	1879.873	826.161	528.688	6999.810	869.146	210.060	121.020	230.859
241.100	798.800	1893.921	828.275	528.459	7048.973	865.631	207.882	122.013	233.037
242.058	801.700	1881.821	825.537	528.433	7089.959	869.859	209.424	121.988	232.413
243.015	804.400	1889.539	824.034	531.006	7060.551	867.236	206.290	121.351	233.419
243.972	807.300	1889.412	826.899	532.700	7112.273	865.045	206.316	121.389	233.890
244.934	810.300	1901.996	822.926	527.656	7109.153	872.139	205.997	120.396	233.878
245.897	813.300	1891.921	833.293	532.178	7128.130	872.368	207.106	120.638	235.419
246.855	815.900	1898.633	828.504	532.216	7122.730	866.943	205.768	120.714	232.986
247.817	818.900	1904.454	839.470	530.560	7119.431	888.786	210.341	121.364	230.553
248.773	821.800	1907.956	838.056	530.802	7190.208	881.666	208.965	120.842	230.923
249.740	824.400	1901.881	835.687	536.254	7217.591	883.500	206.902	120.854	230.515
250.697	827.400	1896.723	836.847	521.186	7213.031	874.585	207.500	120.829	233.572
251.655	830.400	1914.019	834.312	533.630	7251.241	882.621	209.640	121.224	232.120
252.614	833.400	1920.336	836.235	531.910	7234.212	883.373	206.150	122.383	233.534
253.578	836.000	1945.784	835.445	528.917	7250.808	878.418	209.398	121.084	233.266
254.541	838.900	1935.913	843.533	536.903	7272.651	879.475	209.092	121.440	232.298
255.518	841.900	1946.319	837.700	538.126	7295.525	881.641	209.666	121.822	233.343
256.490	844.900	1939.708	846.080	533.872	7333.200	895.332	208.239	120.727	231.088
257.445	847.800	1947.401	847.571	537.871	7326.182	873.451	209.551	121.211	232.566
258.405	850.500	1949.082	848.284	531.745	7363.296	888.123	208.468	121.122	234.056
259.401	853.400	1956.635	854.678	532.598	7357.208	886.837	207.984	121.173	232.897
260.395	856.400	1957.921	859.161	534.611	7376.338	884.837	211.156	121.440	233.050
261.348	859.400	1985.318	846.233	535.337	7383.101	890.225	209.411	121.262	234.374
262.351	862.300	1979.281	855.696	528.357	7358.634	888.544	210.264	121.797	234.170
263.348	865.300	2017.655	857.492	530.369	7348.331	882.201	209.742	121.211	231.725
264.340	868.300	2009.326	862.090	530.293	7373.536	876.928	207.513	122.090	233.788
265.334	871.200	2016.789	863.962	531.134	7367.308	893.409	210.493	121.478	230.451
266.330	874.200	2052.299	863.033	532.012	7407.810	888.314	207.182	120.090	232.540
267.317	877.200	2056.183	865.504	530.076	7404.830	891.142	208.799	120.281	229.776
268.319	880.100	2068.181	868.764	533.362	7428.761	889.792	210.914	120.485	230.986
269.303	883.100	2098.035	867.236	532.178	7412.344	894.976	210.315	121.924	230.808
270.284	886.100	2103.614	865.949	534.420	7452.986	890.467	209.908	122.574	230.490
271.267	889.000	2141.938	873.451	527.389	7467.735	892.645	209.742	121.517	230.961
272.229	892.000	2154.305	872.292	525.924	7438.556	887.015	210.646	120.982	231.916
273.189	894.900	2158.915	880.240	529.541	7481.235	892.734	209.296	120.931	232.464
274.166	897.900	2192.871	871.783	533.120	7483.732	890.900	208.201	121.517	233.253
275.162	900.900	2216.166	879.132	532.242	7522.565	890.480	207.959	121.020	229.534
276.124	903.500	2259.444	885.780	533.936	7562.137	892.900	208.889	121.810	231.852
277.084	906.500	2265.290	892.276	535.005	7597.137	899.191	209.653	122.077	232.617
278.046	909.500	2287.171	891.792	534.012	7585.649	905.865	210.341	121.198	230.235
279.005	912.400	2312.084	898.083	535.184	7625.387	897.217	209.322	121.568	232.094
279.964	915.000	2372.977	900.643	527.465	7633.831	897.587	210.417	121.198	231.267
280.924	918.000	2388.783	903.535	534.254	7664.284	901.344	209.092	122.255	233.483
281.884	921.000	2429.285	906.337	527.695	7705.792	901.471	209.640	121.173	231.610
282.843	923.600	2478.549	908.935	530.892	7676.791	901.599	207.755	121.911	231.241
283.803	926.500	2513.587	908.718	533.859	7763.029	901.611	210.914	122.459	231.139
284.781	929.500	2563.272	909.865	527.020	7772.594	908.578	211.780	121.364	230.171
285.743	932.500	2599.189	926.740	529.771	7776.874	914.361	212.149	121.402	230.451
286.705	935.500	2663.788	923.875	529.707	7800.233	907.279	209.194	121.542	231.177
287.666	938.100	2720.848	930.905	533.694	7837.920	912.488	211.105	121.873	230.502
288.629	941.000	2769.705	928.587	530.127	7840.900	911.202	210.595	122.153	230.655
289.590	944.000	2848.441	933.274	529.898	7824.075	911.266	211.423	121.389	229.038
290.550	946.700	2877.162	938.662	531.796	7881.733	915.227	211.818	122.676	230.808
291.537	949.600	2941.112	941.833	538.100	7872.015	918.653	208.761	121.402	231.012
292.523	952.600	3021.453	943.502	529.898	7851.688	906.617	210.786	121.797	234.642
293.508	955.500	3091.491	963.001	531.503	7875.645	923.658	211.461	121.606	230.388
294.509	958.500	3170.597	969.076	533.413	7847.905	914.437	209.831	121.962	229.853
295.483	961.500	3259.115	970.248	530.318	7895.629	912.246	211.092	121.669	229.751
296.474	964.400	3372.521	974.400	531.159	7836.366	913.978	209.449	121.275	231.050
297.456	967.400	3434.853	979.469	532.700	7840.263	913.596	210.200	121.568	227.153
298.445	970.300	3543.953	998.294	538.406	7829.183	917.850	210.812	122.408	228.936
299.427	973.300	3656.378	996.625	533.503	7802.614	915.940	210.850	121.899	229.802
300.405	976.300	3756.767	1001.796	525.428	7796.896	915.048	211.194	122.026	228.503
301.389	979.200	3896.001	1015.220	534.241	7781.344	915.838	213.652	121.580	226.860
302.384	982.200	4042.076	1022.620	532.012	7771.830	915.851	210.926	121.784	232.744
303.343	985.200	4151.877	1043.406	535.579	7740.537	915.940	212.009	121.759	229.687
304.302	988.100	4284.871	1038.796	535.540	7729.775	911.851	213.028	122.727	227.165
305.264	990.800	4449.922	1053.977	536.827	7724.553	907.432	212.238	121.937	229.496
306.227	993.700	4588.380	1057.162	535.693	7680.217	909.724	213.550	123.019	229.980
307.186	996.700	4768.996	1068.561	537.171	7716.592	917.010	213.117	122.255	231.789
308.147	999.300	4919.324	1084.621	539.871	7685.452	914.182	211.601	122.421	228.452
309.105	1002.300	5131.641	1096.988	542.189	7671.391	918.309	212.493	122.446	228.184
310.063	1005.200	5319.300	1116.641	541.195	7675.415	910.412	214.416	122.586	227.840
