Tue, Oct 24, 2017	11:34 AM
 Notes: H2_top chamber_6.6E-06_60 sec_400 L_102417
 waiting time: 50.000
 time(s)	 temp (K)	 MS1=1.971	 MS2=17.737	 MS3=27.883	 MS4=125.586	 MS5=109.505	 MS6=125.586	 MS7=109.505	 MS8=125.586
0.000	98.700	22804.266	1414.813	16105.111
0.671	98.700	22822.136	1414.008	16018.528
1.310	98.700	23027.511	1429.860	16095.546
2.016	98.700	22814.201	1433.774	16168.500
2.695	98.700	22926.473	1420.940	16110.753
3.412	98.700	22932.535	1448.207	16163.061
4.139	98.700	22711.481	1430.118	16090.527
4.846	98.700	22863.402	1452.315	16121.260
5.535	98.700	22713.264	1457.185	16185.860
6.265	98.700	22654.817	1446.497	16081.395
6.911	98.700	22723.020	1459.727	16207.881
7.561	98.700	22514.474	1451.908	16426.095
8.230	98.700	22362.350	1445.138	17455.212
8.914	98.800	22516.715	1481.268	22421.689
9.575	98.900	22608.736	1479.051	31874.452
10.276	99.100	23314.705	1489.519	41486.166
10.924	99.600	23795.812	1495.645	45802.128
11.592	100.200	23863.136	1499.411	51047.826
12.243	101.100	24415.847	1498.565	58588.466
12.894	102.400	25243.449	1534.769	66487.230
13.586	104.000	26042.610	1514.395	70621.710
14.360	106.400	27000.200	1542.255	66932.496
15.042	109.300	27153.050	1536.451	62632.722
15.692	112.000	27244.995	1521.803	58640.163
16.422	114.800	27523.847	1542.110	55192.330
17.095	117.700	27566.412	1544.549	52623.681
17.758	120.700	27785.861	1527.906	50589.671
18.407	123.500	28295.854	1580.149	49657.910
19.066	126.400	28400.089	1572.868	48537.676
19.716	129.100	28885.628	1618.169	47343.404
20.365	131.800	29380.235	1679.734	47035.552
21.050	134.400	29659.851	1748.772	46699.984
21.736	137.300	29985.204	1846.563	45795.977
22.407	139.800	30482.842	2019.546	45509.368
23.094	142.300	30385.701	2159.751	44315.530
23.772	144.800	30556.230	2351.856	43418.922
24.464	147.200	30578.735	2535.254	42642.203
25.139	149.600	30327.126	2727.650	41361.234
25.806	152.300	30126.858	2920.289	40307.000
26.471	154.600	29931.443	3189.790	39703.636
27.148	157.000	29514.299	3303.696	38251.911
27.868	159.200	29581.828	3348.712	37578.433
28.532	161.500	29187.100	3184.138	36680.475
29.222	164.100	29086.443	2899.472	35658.999
29.912	166.300	28968.020	2652.782	35182.210
30.605	168.400	28729.632	2434.809	34330.676
31.300	170.600	28679.972	2310.778	33532.445
31.969	173.000	28471.579	2234.807	33308.169
32.619	174.800	28209.743	2126.319	32542.861
33.269	176.900	28388.677	2058.863	31957.672
33.920	178.900	28365.255	2032.643	31564.472
34.580	181.000	28220.479	1979.240	31049.716
35.225	183.100	28038.577	1959.813	30329.368
35.905	185.100	28328.472	1930.834	30214.065
36.555	187.100	28006.711	1898.247	29648.134
37.239	189.200	28183.748	1862.207	29056.105
37.890	191.200	28237.495	1863.991	28768.312
38.560	193.200	28009.666	1854.851	28364.707
39.210	195.300	27907.214	1815.556	27851.186
39.860	197.300	27899.368	1831.827	27624.286
40.553	199.600	27682.390	1841.456	27253.668
41.239	201.600	27390.891	1821.334	26754.565
41.921	203.600	27281.230	1827.520	26643.643
42.600	205.600	26907.874	1813.876	26249.196
43.290	207.600	26863.347	1826.753	25911.527
43.968	210.000	26497.200	1835.421	25827.708
44.653	212.000	25919.704	1812.866	25356.294
45.303	214.000	25800.287	1831.956	25138.017
45.954	215.900	25279.035	1843.621	25103.501
46.628	217.900	24840.850	1824.820	24784.911
47.279	219.900	24625.464	1836.763	24573.550
47.927	221.900	24317.649	1851.075	24506.747
48.577	223.900	23863.964	1861.512	24268.372
49.229	225.600	23996.627	1840.368	24194.768
49.914	227.900	24171.970	1886.213	24230.659
50.619	229.800	23732.881	1848.074	23833.193
51.267	231.800	23701.511	1858.089	23690.035
51.916	233.800	23743.936	1874.692	23660.958
52.606	235.800	23518.985	1867.000	23459.416
53.257	237.700	23386.793	1856.322	23135.580
53.903	239.700	23681.871	1873.850	23206.598
54.592	241.700	23355.513	1860.759	22881.194
55.253	243.700	23419.169	1862.520	22705.572
55.906	245.700	23544.216	1885.663	22683.958
56.567	247.700	23428.441	1870.107	22523.071
57.216	249.600	23485.692	1876.691	22264.878
57.865	251.600	23797.378	1884.308	22271.068
58.517	253.600	23789.749	1885.877	22160.210
59.197	255.600	23787.062	1884.699	21871.602
59.877	257.600	24244.249	1900.999	21989.783
60.528	259.600	24267.939	1909.308	21824.540
61.180	261.500	24286.585	1898.411	21672.926
61.869	263.500	24655.267	1910.481	21657.795
62.522	265.500	24878.397	1922.623	21630.373
63.173	267.500	24908.633	1913.721	21361.392
63.860	269.400	25174.685	1925.168	21403.664
64.546	271.700	24977.729	1901.405	21191.832
65.198	273.700	24819.822	1911.659	20954.679
65.848	275.700	24819.300	1931.464	21061.449
66.500	277.400	24520.859	1936.823	21045.070
67.179	279.700	23726.907	1905.173	20750.883
67.831	281.700	23686.355	1939.786	20687.812
68.523	283.700	23181.329	1923.639	20672.872
69.210	285.600	22818.646	1925.565	20512.240
69.883	287.600	22762.351	1927.864	20418.143
70.560	289.600	22461.185	1922.856	20414.552
71.237	291.900	22282.479	1908.099	20105.973
71.917	293.900	22342.073	1913.660	20183.398
72.597	295.900	21993.897	1906.704	20019.849
73.274	297.900	22193.821	1913.566	19901.273
73.958	299.800	22112.155	1927.758	19934.744
74.610	301.800	22029.674	1913.639	19771.985
75.261	303.800	21934.532	1913.910	19649.320
75.912	305.800	22133.246	1922.923	19795.331
76.610	307.700	22024.350	1902.210	19522.300
77.258	309.700	22215.231	1927.095	19514.314
77.910	311.700	22402.495	1932.569	19561.910
78.560	313.700	22321.580	1913.856	19539.571
79.209	315.600	22579.608	1907.837	19352.141
79.891	317.600	22861.326	1935.552	19444.073
80.572	319.600	23013.348	1911.263	19429.502
81.263	321.900	23357.308	1917.780	19246.199
81.912	323.900	23754.622	1931.486	19340.767
82.563	325.500	23889.081	1924.035	19257.433
83.214	327.500	24106.415	1913.372	19133.724
83.912	329.800	24591.088	1934.544	19227.247
84.563	331.800	24851.001	1917.360	19218.064
85.213	333.800	25160.013	1932.886	18995.240
85.865	335.400	25640.699	1934.631	19177.384
86.515	337.400	25706.152	1928.063	19093.438
87.167	339.400	25989.678	1931.763	18978.581
87.819	341.300	26269.294	1928.725	18860.603
88.515	343.700	26221.659	1946.353	19047.663
89.165	345.600	26037.949	1914.338	18841.537
89.817	347.300	26361.353	1934.863	18814.663
90.527	349.600	26258.391	1958.303	18973.257
91.178	351.600	26233.466	1938.214	18796.985
91.829	353.600	26360.130	1963.881	18787.267
92.542	355.500	26183.870	1993.611	18914.453
93.194	357.500	26021.875	1976.324	18752.509
93.843	359.500	26106.675	2002.030	18813.033
94.589	361.800	25794.695	1982.837	18727.278
95.237	363.800	25519.983	2004.526	18694.100
95.936	365.800	25442.634	2008.151	18825.960
96.588	367.700	25270.094	1988.436	18763.602
97.242	369.700	25059.178	2001.418	18656.056
97.946	371.700	25056.733	2018.181	18809.619
98.612	373.700	24643.371	1986.026	18674.154
99.263	375.700	24537.773	1980.304	18691.794
99.916	377.600	24262.679	1999.910	18785.318
100.565	379.600	23803.619	2010.209	18732.322
101.228	381.600	23306.630	1983.987	18642.848
101.880	383.600	23017.322	1993.783	18686.318
102.529	385.600	22451.772	2023.965	18729.698
103.188	387.500	21976.856	2005.110	18584.451
103.840	389.500	21656.394	2019.560	18647.828
104.560	391.500	21023.112	2028.810	18693.845
105.212	393.500	20850.253	2024.294	18577.383
105.895	395.800	20646.572	2038.690	18683.579
106.547	397.800	20093.746	2045.742	18669.429
107.234	399.700	19919.766	2036.477	18546.000
107.884	401.700	19872.590	2068.842	18649.063
108.560	403.700	19415.530	2052.970	18564.748
109.236	405.700	19174.391	2061.390	18467.467
109.885	407.700	19011.785	2090.931	18500.595
110.583	409.600	18868.869	2079.141	18449.764
111.255	411.600	18595.507	2058.486	18261.391
111.944	413.900	18573.562	2100.631	18448.082
112.593	415.600	18292.354	2087.445	18305.307
113.278	417.800	18182.757	2091.523	18299.079
113.949	419.800	18149.158	2125.572	18312.159
114.597	421.800	17893.092	2110.729	18289.730
115.249	423.800	17780.654	2131.940	18151.883
115.899	425.700	17778.247	2158.422	18384.069
116.550	427.400	17665.364	2143.640	18426.914
117.200	429.400	17642.094	2155.608	18334.804
117.851	431.300	17689.703	2184.921	18502.480
118.533	433.300	17537.987	2191.780	18549.808
119.185	435.300	17443.215	2189.277	18543.083
119.835	437.300	17382.347	2220.020	18638.747
120.486	439.300	17390.027	2213.471	18958.623
121.138	441.200	17223.205	2196.436	19007.684
121.801	443.200	17322.919	2220.182	19353.835
122.450	445.200	17288.760	2252.552	19763.783
123.102	447.200	17226.198	2235.211	20132.860
123.782	449.200	17258.778	2240.410	20504.917
124.432	451.100	17232.630	2263.835	21252.878
125.098	453.100	17142.864	2269.466	21760.145
125.750	455.100	17185.696	2279.142	22328.343
126.402	457.100	17239.788	2321.932	23222.582
127.053	459.100	17017.524	2333.670	23816.890
127.706	461.100	17099.547	2338.049	24455.483
128.356	463.000	17189.594	2339.027	25098.496
129.008	465.000	17108.488	2383.789	25805.776
129.659	467.000	16966.617	2357.055	26013.928
130.372	469.000	17087.447	2392.903	26721.438
131.031	471.000	17027.968	2418.148	26815.484
131.681	472.900	16893.675	2401.068	26876.937
132.334	474.900	17043.443	2433.160	26916.726
132.982	476.900	16983.060	2451.267	26979.835
133.665	478.900	16917.913	2443.234	26499.161
134.343	480.900	17074.405	2472.921	26218.017
134.995	482.800	17020.441	2483.843	25808.858
135.646	484.800	16886.441	2469.064	24924.681
136.299	486.800	16915.072	2498.560	24187.890
136.950	488.800	16846.499	2544.484	23561.550
137.600	490.700	16658.662	2524.457	22749.423
138.253	492.700	16712.614	2527.488	21763.507
138.904	494.700	16757.522	2577.643	21121.425
139.553	496.700	16596.508	2573.366	20219.264
140.203	498.300	16530.826	2588.516	19394.439
140.853	500.300	16561.114	2607.356	18742.116
141.505	502.300	16536.736	2636.917	18174.007
142.155	504.300	16454.395	2616.487	17551.818
142.807	506.300	16472.544	2647.319	17039.367
143.459	508.300	16504.653	2672.249	16750.938
144.149	510.300	16246.600	2675.600	16369.901
144.801	512.200	16411.333	2690.729	16138.633
145.454	514.200	16318.000	2722.734	16102.793
146.103	516.200	16253.643	2728.262	15897.685
146.753	518.100	16063.093	2736.864	15708.510
147.404	520.100	16229.176	2779.851	15710.816
148.055	522.100	15967.850	2787.877	15588.342
148.704	524.100	15942.976	2795.694	15416.183
149.357	526.100	16104.703	2834.637	15449.922
150.024	528.000	16016.439	2845.161	15343.789
150.671	530.000	15788.279	2842.545	15203.905
151.319	532.000	15945.472	2871.422	15200.734
151.969	533.600	15966.462	2911.707	15297.480
152.645	535.900	15814.783	2894.306	15088.627
153.297	537.900	15960.233	2934.071	15176.063
153.967	539.900	15957.750	2966.873	15185.896
154.620	541.800	15846.357	2972.967	15066.657
155.278	543.800	15735.295	2999.376	14936.745
155.949	545.800	15751.254	3028.669	15102.166
156.596	547.800	15674.007	3013.254	14993.677
157.274	549.800	15751.267	3052.919	14992.938
157.926	551.700	15667.766	3099.182	15035.122
158.577	553.700	15629.226	3083.098	15055.602
159.230	555.400	15720.648	3109.004	14945.648
159.883	557.400	15709.950	3156.319	15034.472
160.535	559.300	15694.717	3179.209	15054.494
161.186	561.300	15431.480	3148.706	14897.810
161.837	563.300	15832.232	3228.557	14993.690
162.488	565.300	15735.219	3260.912	14979.005
163.138	567.200	15649.324	3263.610	14904.458
163.813	569.200	15659.450	3265.127	14887.264
164.465	571.200	15648.649	3330.687	14931.549
165.158	573.200	15506.306	3327.051	14793.371
165.811	575.100	15621.495	3366.722	14812.552
166.510	577.500	15532.556	3386.762	14896.715
167.161	579.400	15475.026	3395.389	14802.516
167.811	581.100	15541.803	3429.333	14787.028
168.483	583.400	15570.727	3466.534	14851.093
169.135	585.400	15437.224	3461.430	14803.254
169.788	587.000	15438.154	3480.917	14723.677
170.439	589.000	15369.963	3566.156	14769.758
171.082	591.000	15205.828	3524.863	14796.937
171.733	593.000	15366.142	3583.969	14726.403
172.384	594.900	15333.193	3612.201	14735.930
173.036	596.900	15248.584	3653.746	14780.596
173.725	598.900	15081.495	3677.153	14612.412
174.402	600.900	15168.345	3708.305	14708.763
175.054	602.800	15026.805	3693.974	14568.624
175.707	604.800	15032.995	3755.590	14568.624
176.357	606.800	14994.378	3795.485	14664.746
177.031	608.800	15157.442	3836.407	14724.161
177.682	610.800	15048.737	3808.570	14587.079
178.330	612.800	15138.656	3884.143	14584.621
178.975	614.700	15172.497	3925.189	14731.472
179.624	616.700	15055.525	3893.532	14600.083
180.274	618.700	15133.383	3941.119	14642.036
180.921	620.600	15103.504	4004.516	14689.938
181.572	622.600	14937.675	4003.495	14663.930
182.221	624.300	14918.558	4027.278	14517.066
182.865	626.300	15033.096	4086.492	14639.273
183.514	628.200	14869.560	4107.482	14662.708
