Thu, Oct 12, 2017	2:20 PM
 Notes: GUA_5.84E-9_30sec_0.15 L_101217
 waiting time: 50.000
 time(s)	 temp (K)	 MS1=1.933	 MS2=27.907	 MS3=78.871	 MS4=125.586	 MS5=17.701	 MS6=78.871	 MS7=109.505	 MS8=125.586
0.000	99.500	4673.138	11532.165	12.988	139.075
1.131	99.500	4728.969	11563.560	13.668	136.312
2.054	99.400	4719.527	11486.645	13.231	137.147
2.921	99.400	4767.462	11534.636	13.432	137.341
3.778	99.400	4718.461	11653.365	14.392	137.621
4.663	99.400	4752.433	11715.812	13.105	137.855
5.541	99.400	4765.503	11641.953	13.503	139.089
6.430	99.500	4803.694	11744.392	13.451	135.991
7.314	99.500	4800.644	12239.012	13.764	136.998
8.179	99.800	4787.949	13558.878	12.696	138.654
9.042	100.400	4906.402	14709.845	13.324	134.480
9.932	101.400	4917.685	14199.852	13.982	135.954
10.825	103.100	4952.568	14930.390	12.717	135.936
11.716	105.400	4937.041	15440.867	12.783	140.907
12.576	108.400	4944.719	15152.755	13.214	134.329
13.468	111.900	5000.472	14859.167	13.760	137.553
14.396	116.100	4976.274	14639.209	12.940	137.674
15.299	119.900	4952.065	14468.719	13.162	135.158
16.186	123.600	4868.216	14369.808	13.758	135.933
17.065	127.200	4905.199	14189.179	14.235	133.256
17.930	130.700	4936.450	14178.735	14.204	133.241
18.836	134.100	4926.085	14332.184	15.190	134.824
19.717	137.400	4893.033	14178.175	14.022	133.656
20.603	140.800	4865.826	13976.850	14.042	135.019
21.485	144.000	4902.267	13864.502	14.650	137.942
22.404	147.700	4914.650	13691.070	14.080	134.246
23.271	150.500	4850.219	13761.489	13.340	138.076
24.135	153.600	4858.092	13634.864	14.476	139.073
25.000	156.600	4859.118	13453.547	15.774	146.846
25.894	159.600	4870.957	13519.510	17.506	151.933
26.890	163.000	4887.472	13550.446	22.762	168.551
27.775	165.900	4837.978	13675.646	29.991	188.757
28.638	168.700	4824.476	13733.278	40.724	205.082
29.543	171.900	4851.411	13535.749	51.199	217.834
30.408	174.400	4854.812	13523.611	55.269	244.764
31.270	177.200	4784.691	13601.010	45.149	291.526
32.146	179.900	4786.770	13623.668	39.705	383.823
33.009	182.700	4797.138	13565.246	40.017	566.546
33.871	185.500	4823.238	13859.840	51.148	914.557
34.735	188.200	4795.865	14334.095	65.368	1546.540
35.600	190.900	4815.035	15077.559	99.532	2717.544
36.489	193.600	4917.375	16361.139	156.463	4778.163
37.376	196.300	5001.275	18266.575	238.254	8019.330
38.243	199.000	5028.152	21026.908	331.976	10416.218
39.109	201.300	5124.152	22707.749	358.408	10426.523
39.975	204.000	5307.218	21859.973	278.151	7200.442
40.841	206.700	5304.684	17813.030	132.535	3093.020
41.721	209.300	5275.870	16333.093	105.374	2494.952
42.584	212.000	5393.775	15830.920	99.911	2237.940
43.477	214.700	5550.665	15584.636	90.873	2098.618
44.340	217.300	5640.166	15569.708	89.940	2014.649
45.206	220.000	5708.444	15502.103	88.994	1990.101
46.074	222.600	5817.553	15379.630	86.319	1951.508
46.937	225.300	5984.387	15286.170	85.195	1873.170
47.833	227.900	5997.750	15263.715	79.107	1766.676
48.718	230.600	5984.921	15155.761	75.325	1601.767
49.605	233.200	5906.908	14917.691	68.001	1401.063
50.485	235.800	5957.661	14735.356	62.127	1232.121
51.376	238.500	5801.273	14578.291	56.664	1108.886
52.237	241.100	5668.021	14504.457	54.438	1003.334
53.101	243.800	5633.394	14396.834	50.597	926.078
53.984	246.400	5686.624	14235.909	47.698	861.460
54.874	249.100	5629.253	14217.824	45.903	806.360
55.738	251.700	5534.421	14246.035	47.223	756.998
56.601	254.400	5496.765	14143.838	42.685	721.294
57.467	256.700	5531.697	14076.627	40.317	688.830
58.349	259.300	5542.725	14089.517	38.927	670.551
59.271	262.300	5530.979	14121.027	40.277	638.114
60.153	264.900	5508.987	14102.495	38.504	608.066
61.015	267.600	5590.732	13909.423	36.996	600.503
61.877	269.900	5593.297	13910.213	36.957	586.455
62.760	272.500	5588.243	14050.135	34.677	566.099
63.625	275.100	5676.853	14086.345	35.840	555.054
64.490	277.800	5755.639	13929.012	33.942	541.610
65.354	280.400	5792.663	13919.510	34.727	531.655
66.244	283.100	5810.359	14006.437	34.171	517.219
67.117	285.700	5834.161	13947.072	33.411	506.298
67.998	288.400	5979.653	13783.434	32.203	500.211
68.884	291.000	6002.924	13746.282	32.010	491.656
69.774	293.600	6065.057	13847.460	32.249	481.352
70.641	296.300	6160.029	13867.902	31.972	475.217
71.553	298.900	6279.577	13742.206	32.870	469.006
72.419	301.600	6386.941	13760.254	31.637	467.258
73.284	304.200	6453.553	13888.064	32.481	456.748
74.149	306.800	6557.038	13833.043	29.435	450.432
75.016	309.500	6820.743	13738.729	31.721	445.754
75.882	312.100	7043.148	13708.378	30.957	446.174
76.746	314.700	7242.008	13788.898	31.317	444.324
77.634	317.400	7589.571	13783.230	31.555	433.830
78.499	320.000	8106.604	13828.840	30.020	429.107
79.363	322.300	8483.179	13820.421	33.770	425.634
80.228	324.900	8770.333	13882.142	31.177	421.063
81.114	327.600	9028.406	13885.173	29.975	407.502
81.998	330.200	9275.914	13797.050	30.148	403.603
82.864	332.800	9317.274	13796.132	32.901	391.490
83.738	335.500	9145.086	13886.256	33.611	383.303
84.647	338.100	8889.050	13900.240	33.739	366.415
85.512	340.800	8711.667	13786.567	34.323	359.068
86.460	343.700	8359.736	13839.500	32.870	345.835
87.344	346.400	7969.504	13881.046	34.615	341.873
88.210	349.000	7584.656	14003.838	36.226	335.605
89.090	351.600	7389.793	14011.366	35.144	327.826
89.983	354.300	7335.227	13901.463	35.440	327.058
90.848	356.900	7205.426	13933.546	35.578	319.249
91.712	359.600	7202.234	14061.904	35.689	319.568
92.571	362.200	7324.963	13901.743	36.956	313.685
93.434	364.500	7499.356	13840.634	37.676	314.570
94.301	367.200	7725.809	13995.598	39.466	310.252
95.166	369.800	8039.323	13976.748	37.644	308.163
96.048	372.400	8385.176	13840.468	39.715	297.158
96.960	375.100	8701.244	13790.898	39.302	292.164
97.826	377.700	8985.689	13896.789	39.337	296.027
98.721	380.400	9122.697	13961.082	40.280	287.244
99.585	383.000	9174.795	13953.861	41.292	284.379
100.449	385.600	9336.051	14003.469	43.003	281.427
101.314	388.300	9350.319	14290.778	42.881	278.431
102.177	390.900	9349.069	14469.942	42.232	277.289
103.042	393.500	9459.980	14661.689	45.324	274.091
103.905	396.200	9458.380	14877.177	45.212	273.501
104.770	398.500	9407.670	15413.865	44.127	271.608
105.636	401.100	9351.048	15860.265	44.440	263.330
106.498	403.700	9329.525	16291.419	43.649	263.820
107.362	406.400	9139.525	16916.257	42.578	261.279
108.223	409.000	8821.607	17550.965	40.875	259.952
109.087	411.700	8616.880	18075.197	39.230	257.777
109.953	414.300	8401.305	18546.140	36.614	255.499
110.817	416.600	8092.384	19122.159	37.361	250.282
111.696	419.200	7706.079	19385.727	34.053	250.367
112.560	421.900	7459.776	19509.665	31.974	248.319
113.424	424.500	7260.809	19794.198	32.352	250.591
114.289	427.100	7044.997	20050.901	31.529	248.050
115.153	429.800	6886.426	20211.240	29.815	245.494
116.018	432.400	6907.421	20374.152	29.527	243.583
116.886	435.000	6777.808	20447.539	27.240	242.712
117.748	437.400	6683.211	20751.240	26.259	236.904
118.614	440.000	6582.237	20815.954	25.361	239.215
119.477	442.600	6644.734	20953.788	24.495	233.604
120.342	445.300	6601.858	21138.810	24.582	233.114
121.298	448.300	6531.624	21377.746	23.895	234.148
124.433	457.500	6357.232	21211.204	23.303	224.644
125.299	460.200	6347.674	21586.560	23.479	226.738
126.596	464.100	6327.145	21719.044	24.659	221.609
127.455	466.800	6442.576	21669.958	22.973	221.787
128.501	469.700	6407.837	21652.598	22.413	224.466
129.357	472.400	6456.665	21730.138	23.279	222.809
130.351	475.300	6474.113	21623.152	23.395	219.356
131.260	478.000	6491.475	21594.749	21.986	221.391
132.251	480.900	6435.877	21390.393	23.038	215.302
133.117	483.600	6515.889	21247.898	23.779	217.717
133.983	486.200	6561.737	20846.712	24.473	217.703
134.849	488.900	6657.598	20541.127	21.918	215.982
135.715	491.500	6614.131	20278.819	22.936	216.861
136.580	494.100	6634.405	19764.980	23.315	217.075
137.444	496.800	6744.332	19251.650	23.724	217.332
138.310	499.100	6748.618	18856.922	22.225	213.851
139.209	502.000	6760.880	18317.088	22.270	211.692
140.073	504.400	6741.221	17694.352	21.974	213.337
140.942	507.000	6800.642	17138.470	23.507	213.847
141.807	509.600	6819.005	16712.792	23.560	218.640
142.669	512.300	6749.119	16159.049	22.524	213.677
143.535	514.900	6782.054	15708.485	23.137	215.166
144.398	517.500	6835.052	15428.423	23.629	218.625
145.277	520.200	6753.134	15221.086	24.504	221.306
146.140	522.800	6699.552	14901.580	24.463	213.438
147.006	525.100	6752.686	14637.311	23.050	214.219
147.869	527.800	6759.417	14498.051	23.509	216.016
148.751	530.400	6688.287	14480.882	24.975	219.758
149.614	533.100	6676.932	14340.628	23.024	220.396
150.481	535.700	6653.472	14209.494	24.541	217.720
151.367	538.300	6668.466	14091.898	24.923	219.593
152.233	540.900	6550.349	14183.817	25.455	214.820
153.113	543.600	6498.662	14078.984	24.240	216.774
153.989	546.200	6550.063	14023.465	23.896	220.030
154.854	548.900	6539.313	14053.918	24.862	218.141
155.736	551.500	6375.110	14119.052	25.770	215.813
156.592	554.100	6303.326	14088.893	24.611	218.649
157.455	556.400	6283.142	13921.039	24.836	218.760
158.317	559.100	6234.172	14023.937	26.184	216.519
159.177	561.700	6104.891	13934.068	25.598	215.920
160.040	564.400	6092.986	13859.471	25.873	218.727
160.905	567.000	6073.142	13841.780	23.625	217.412
161.762	569.600	6019.258	13949.034	25.646	218.835
162.642	572.300	5960.033	14035.145	26.087	220.472
163.503	574.600	6038.904	13952.549	25.907	219.137
164.417	577.500	6047.277	13873.086	25.426	220.617
165.305	580.200	5982.147	13986.173	24.679	218.652
166.165	582.800	5974.923	13982.263	26.065	219.772
167.018	585.100	6008.651	13856.975	26.124	218.567
167.919	588.100	5973.594	13779.995	25.903	215.890
168.784	590.400	5922.673	13890.382	25.506	217.319
169.646	593.000	5941.752	13867.215	25.447	215.648
170.528	595.700	6018.523	13714.021	25.717	211.908
171.391	598.300	6000.583	13748.536	25.317	213.017
172.253	601.000	5991.750	13901.106	24.873	217.878
173.162	603.600	6045.239	13978.506	23.951	215.846
174.025	606.200	6065.988	13773.003	24.798	214.367
174.891	608.900	6094.812	13861.712	24.774	214.144
175.757	611.500	6029.688	13908.124	26.074	216.982
176.624	614.200	6052.453	13913.015	24.941	214.520
177.488	616.800	6165.967	13952.179	26.307	214.713
178.354	619.100	6184.441	13952.065	25.812	212.928
179.218	621.700	6101.700	14031.400	24.495	214.316
180.081	624.400	6117.099	13975.589	24.312	217.969
180.946	627.000	6161.168	13935.431	24.348	215.633
181.804	629.700	6180.963	14047.996	24.982	215.301
182.660	632.300	6107.207	14061.356	25.948	219.513
183.558	634.900	6199.845	13951.887	25.069	218.049
184.442	637.600	6159.395	13873.252	26.067	214.775
185.303	640.200	6161.857	14029.948	25.462	218.109
186.160	642.500	6135.276	14029.757	24.603	219.213
187.018	645.100	6187.083	13883.364	25.247	217.957
187.882	647.800	6246.654	14025.376	25.059	217.531
188.746	650.400	6151.865	14069.202	25.380	214.901
189.611	653.000	6228.242	14253.511	25.889	216.533
190.476	655.700	6314.803	14227.249	26.266	221.299
191.341	658.300	6305.734	14216.512	25.393	222.002
192.204	660.600	6285.984	14307.399	25.679	222.443
193.066	663.200	6264.853	14138.501	26.392	219.580
193.921	665.900	6282.665	14168.202	25.046	218.877
194.783	668.500	6263.151	14310.812	26.149	220.106
195.644	671.200	6246.005	14320.021	26.428	224.296
196.504	673.500	6282.849	14273.125	25.599	222.136
197.375	676.100	6261.999	14327.574	25.217	223.689
198.325	679.100	6225.986	14369.757	25.101	224.794
199.193	681.700	6227.098	14402.566	27.724	221.624
200.085	684.300	6187.948	14432.611	26.277	224.871
200.961	687.000	6153.397	14369.158	25.773	225.395
201.822	689.600	6074.538	14363.006	25.827	224.734
202.688	692.300	5996.292	14404.629	25.946	229.424
203.550	694.900	5924.444	14262.834	26.825	226.511
204.418	697.200	5888.303	14287.288	26.021	225.848
205.286	699.900	5710.616	14456.161	26.030	227.817
206.153	702.500	5679.860	14520.225	25.110	224.117
207.019	705.100	5638.352	14378.634	25.302	228.159
207.899	707.800	5577.968	14381.079	26.075	232.629
208.769	710.500	5410.380	14467.407	25.027	233.622
209.639	713.100	5285.489	14467.025	27.490	231.559
210.507	715.700	5261.482	14392.249	26.040	230.223
211.375	718.400	5214.008	14447.373	26.477	231.731
212.241	721.000	5070.350	14515.895	26.108	231.178
213.150	723.600	5045.915	14575.973	27.920	234.608
214.657	728.200	4939.072	14538.566	26.270	233.987
215.594	730.900	4906.645	14574.737	26.513	233.740
216.458	733.500	4933.940	14495.949	26.618	237.440
217.324	736.100	4915.082	14580.851	26.416	232.095
218.189	738.700	4846.315	14634.968	27.444	236.024
219.056	741.400	4843.012	14539.406	27.562	237.424
219.920	743.700	4890.606	14639.094	27.598	239.288
220.785	746.300	4846.984	14851.436	26.040	244.406
221.651	748.900	4813.017	14838.675	25.625	239.628
222.514	751.600	4854.753	14762.230	27.033	239.097
223.376	754.200	4862.092	14756.499	27.961	242.180
224.242	756.800	4769.545	14902.064	26.550	237.996
225.107	759.500	4818.218	14935.573	25.970	245.057
225.971	761.800	4871.231	14916.329	26.940	244.076
226.836	764.400	4849.589	15062.569	27.420	242.591
227.703	767.100	4779.924	15116.023	27.086	248.326
228.570	769.700	4830.540	15138.121	26.577	246.667
229.436	772.300	4854.260	15107.057	27.189	250.991
230.301	775.000	4806.956	15233.734	25.883	244.774
231.165	777.600	4812.757	15266.415	28.839	248.298
232.030	779.900	4852.918	15125.092	26.546	248.889
232.935	782.900	4843.609	15255.577	26.217	249.728
233.801	785.500	4864.608	15531.703	27.262	254.013
234.666	787.800	4800.120	15540.682	28.508	246.949
235.532	790.500	4867.626	15551.597	28.394	250.584
236.427	793.100	4854.604	15595.678	27.121	251.264
237.295	795.800	4840.313	15703.823	27.205	252.936
238.158	798.400	4808.273	15746.643	28.037	258.388
