Thu, Oct 19, 2017	11:15 AM
 Notes: GUA_top chamber_8E-9_90 sec_101917
 waiting time: 50.000
 time(s)	 temp (K)	 MS1=1.971	 MS2=14.708	 MS3=27.883	 MS4=125.586	 MS5=109.505	 MS6=125.586	 MS7=109.505	 MS8=125.586
0.000	98.200	4292.382	681.490	13228.978	13.038
0.884	98.200	4315.095	682.786	13300.417	13.029
1.748	98.200	4335.118	705.468	13312.033	13.732
2.649	98.200	4367.239	695.993	13387.636	13.693
3.525	98.200	4418.583	723.076	13470.551	13.224
4.407	98.200	4393.621	698.520	13316.108	13.413
5.308	98.200	4350.026	693.015	13253.292	13.539
6.174	98.200	4341.677	703.726	13455.407	13.405
7.040	98.200	4397.334	701.446	13825.936	12.506
7.905	98.300	4404.945	718.757	15540.096	13.022
8.801	98.600	4400.709	783.814	17794.117	13.539
9.681	99.200	4427.780	815.280	18031.397	13.381
10.589	100.500	4524.807	867.234	18583.866	13.744
11.477	102.200	4582.777	966.898	20091.861	14.346
12.341	104.600	4571.248	1171.861	21047.668	14.319
13.210	107.700	4560.141	1133.146	20015.162	13.963
14.078	110.700	4580.112	1100.975	19387.969	14.449
14.966	115.000	4565.104	1091.222	18573.307	13.894
15.834	118.300	4465.530	1126.243	18222.074	13.559
16.698	122.000	4483.425	1140.683	18005.835	13.992
17.575	125.700	4543.394	1148.681	17861.696	14.680
18.439	129.200	4560.219	1162.361	17564.351	13.493
19.304	132.700	4470.911	1160.888	17533.351	13.479
20.168	136.100	4476.539	1136.933	17475.527	14.210
21.053	139.400	4555.685	1149.573	17418.621	14.254
21.912	142.700	4519.748	1164.329	16989.390	15.338
22.786	145.900	4458.747	1159.804	16682.403	15.140
23.660	149.100	4453.638	1162.262	16590.089	16.118
24.553	152.300	4535.113	1143.227	16373.302	17.223
25.449	155.300	4547.602	1143.653	16059.221	18.255
26.345	158.300	4445.789	1221.532	15895.940	20.162
27.237	161.300	4452.366	1372.398	15921.464	22.108
28.114	164.200	4484.584	1527.290	15904.919	24.482
29.003	167.100	4468.501	1696.103	15850.980	26.419
29.881	170.000	4431.291	1751.221	15694.768	30.599
30.793	172.800	4421.266	1596.000	15580.980	36.010
31.680	175.600	4376.810	1401.400	15565.378	45.175
32.546	178.400	4430.748	1222.905	15442.803	62.747
33.414	181.100	4394.574	1152.436	15326.646	101.511
34.279	183.900	4335.190	1138.996	15467.881	161.950
35.172	186.600	4335.133	1145.710	15756.272	270.039
36.039	189.300	4413.570	1159.787	15814.681	411.597
36.904	192.000	4430.077	1251.762	15946.720	556.803
37.769	194.700	4362.928	1305.504	15933.118	558.730
38.634	197.400	4404.454	1244.485	15874.683	453.062
39.499	200.100	4478.334	1225.584	15854.687	407.334
40.394	202.800	4423.926	1177.288	15616.999	396.522
41.304	205.400	4357.857	1143.263	15583.922	413.951
42.171	208.100	4371.280	1162.487	15725.399	422.585
43.036	210.800	4458.635	1170.074	15718.241	444.106
43.929	213.400	4472.693	1172.238	15582.967	466.223
44.794	216.100	4380.555	1164.487	15623.660	471.265
45.660	218.700	4410.751	1190.063	15693.838	474.392
46.570	221.400	4497.858	1217.902	15747.713	475.458
47.464	224.000	4517.111	1209.131	15630.856	468.306
48.357	226.700	4458.806	1175.810	15449.680	427.896
49.222	229.300	4463.710	1112.502	15300.027	354.346
50.114	231.900	4570.695	1059.675	15205.230	276.972
50.979	234.600	4591.830	1009.599	15039.694	231.062
51.897	237.200	4563.433	999.667	14939.471	188.163
52.764	239.900	4581.844	982.254	14912.202	160.506
53.628	242.500	4648.580	957.075	15030.231	136.754
54.495	245.100	4695.637	949.258	15001.141	121.181
55.383	247.800	4667.949	939.047	14908.547	109.966
56.285	250.400	4661.746	966.926	14959.734	98.362
57.150	253.100	4705.206	940.604	15059.232	91.669
58.015	255.700	4770.176	950.106	15040.484	84.007
58.879	258.400	4736.141	921.316	14829.759	84.729
59.744	261.000	4707.492	921.342	14806.706	81.674
60.645	263.600	4761.850	933.936	14942.426	80.383
61.551	266.300	4873.084	932.560	14956.971	76.824
62.418	268.900	4894.134	918.751	14807.203	77.325
63.322	271.500	4873.639	965.575	14814.921	74.908
64.187	274.200	4922.313	948.816	14880.730	75.271
65.075	276.800	5048.105	924.550	14778.813	75.710
65.939	279.400	5084.186	961.500	14718.544	74.368
66.807	282.100	5033.571	959.919	14647.029	76.215
67.673	284.800	5110.390	966.155	14727.574	75.661
68.539	287.400	5278.726	985.796	14678.272	73.592
69.435	290.100	5408.263	1022.463	14598.019	74.570
70.305	292.700	5373.657	1017.426	14511.895	72.171
71.198	295.300	5497.309	1051.876	14560.358	72.649
72.065	298.000	5720.027	1050.441	14594.682	71.599
72.932	300.600	5851.597	1107.105	14540.043	71.542
73.798	302.900	5970.851	1180.337	14634.802	73.618
74.665	305.500	6208.789	1235.330	14807.852	72.860
75.532	308.200	6526.817	1259.288	14799.090	72.185
76.399	310.800	6671.031	1281.013	14658.059	75.380
77.264	313.400	6858.855	1345.714	14632.484	72.892
78.156	316.100	7147.938	1375.701	14754.296	69.709
79.022	318.700	7540.491	1400.714	14656.798	70.124
79.913	321.400	7813.534	1462.614	14619.366	69.869
80.808	324.000	7902.340	1489.520	14555.110	71.059
81.675	326.600	8155.139	1550.845	14703.235	67.025
82.530	329.300	8384.659	1577.142	14635.312	63.887
83.427	331.900	8441.304	1591.483	14523.371	62.831
84.332	334.500	8260.564	1579.730	14495.809	60.327
85.229	337.200	8038.215	1494.608	14388.326	54.967
86.131	340.200	8009.503	1506.397	14557.887	54.150
86.999	342.500	7808.037	1419.133	14545.290	54.863
87.865	345.100	7464.619	1358.457	14474.374	52.680
88.730	347.800	7324.082	1283.759	14545.087	51.945
89.626	350.400	7360.168	1260.240	14675.839	52.499
90.491	353.000	7413.126	1208.835	14744.565	51.858
91.389	355.700	7356.873	1139.577	14652.302	51.990
92.268	358.300	7436.325	1067.856	14516.073	49.923
93.134	360.900	7611.495	1015.991	14690.371	50.690
94.006	363.600	7989.700	1011.363	14749.863	50.525
94.869	366.200	8071.444	984.423	14637.018	51.148
95.733	368.900	8245.978	940.536	14629.466	50.958
96.625	371.500	8433.029	905.265	14685.239	48.600
97.492	374.200	8619.387	916.223	14883.774	49.789
98.359	376.800	8590.958	885.392	14807.292	48.652
99.225	379.400	8690.633	900.109	14988.965	48.440
100.090	381.700	8891.172	891.542	15236.447	48.838
100.988	384.700	8961.916	860.327	15319.004	48.345
101.852	387.000	8963.897	879.029	15503.785	49.709
102.733	389.600	9043.751	869.955	15812.045	49.348
103.597	392.300	9278.553	873.469	16212.326	49.202
104.463	394.900	9297.710	840.213	16355.204	47.618
105.376	397.900	9329.332	873.153	16897.330	49.896
106.242	400.200	9294.576	880.316	17382.525	48.555
107.146	403.200	9321.885	855.024	18072.905	47.847
108.042	405.800	9308.611	865.522	18751.541	50.404
108.911	408.400	9164.582	864.970	19259.623	48.942
109.775	411.100	8862.168	866.674	19819.085	49.723
110.643	413.400	8657.359	867.054	20550.259	46.363
111.528	416.000	8445.535	854.337	21042.510	48.000
112.395	418.600	8180.503	858.894	21471.231	49.584
113.263	421.300	7831.856	869.418	21975.709	47.633
114.130	423.900	7640.746	847.059	22451.569	48.485
114.999	426.500	7512.262	843.732	22798.726	48.203
115.865	429.200	7191.320	835.455	22923.874	47.341
116.769	431.800	7040.624	839.134	23446.935	48.798
117.635	434.400	7008.446	842.470	23882.993	49.375
118.502	437.100	6972.994	844.807	24268.359	48.745
119.367	439.700	6908.874	854.930	24266.742	48.675
120.235	442.400	6771.371	853.994	24670.640	48.475
121.102	444.700	6848.735	853.296	24971.271	49.050
121.969	447.300	6804.846	844.474	25036.596	50.206
122.879	450.300	6726.046	847.607	25107.182	49.902
123.770	452.900	6624.990	834.642	25248.353	49.281
124.638	455.600	6677.721	840.011	25632.471	49.078
125.506	458.200	6722.815	835.676	25643.794	50.064
126.403	460.900	6668.507	828.818	25591.918	48.580
127.268	463.500	6574.552	854.711	25871.598	51.649
128.173	466.100	6560.237	845.180	25973.120	52.026
129.069	468.800	6744.916	868.522	26180.317	49.838
129.936	471.400	6734.577	854.025	25995.333	51.005
130.802	474.100	6655.482	864.732	25987.385	52.778
131.670	476.700	6669.562	870.837	26082.616	50.969
132.538	479.000	6920.110	899.471	26137.815	52.004
133.449	482.000	6925.327	890.632	25662.083	51.042
134.314	484.600	6842.113	885.687	25323.409	50.425
135.180	486.900	6909.006	919.557	25147.213	52.185
136.046	489.600	7082.433	936.719	24652.707	53.807
136.912	492.200	7110.730	920.193	23894.392	54.376
137.779	494.800	7022.156	925.354	23185.965	53.231
138.645	497.500	7021.957	918.254	22555.791	53.057
139.511	500.100	7181.043	931.638	21808.734	54.167
140.378	502.700	7099.505	935.678	20936.097	55.631
141.281	505.400	7062.534	948.301	20194.810	58.143
142.147	508.000	7164.841	978.514	19577.703	55.938
143.003	510.700	7244.765	975.765	18852.579	56.646
143.869	513.000	7172.671	991.516	18038.287	59.382
144.736	515.600	7120.458	990.711	17458.167	57.321
145.632	518.300	7161.769	979.510	17167.993	57.541
146.500	520.900	7277.976	1033.607	16909.252	57.788
147.369	523.500	7163.407	1031.043	16441.124	60.140
148.237	526.200	7126.787	1027.845	16304.079	59.363
149.103	528.800	7255.862	1043.381	16231.673	60.839
149.969	531.500	7209.650	1065.299	16158.540	59.893
150.836	534.100	7110.826	1100.347	15999.118	60.992
151.706	536.700	7018.288	1084.351	15873.358	62.392
152.599	539.400	7112.171	1070.804	15817.394	65.320
153.466	542.000	7052.076	1087.458	15754.693	63.123
154.331	544.600	6889.146	1104.660	15601.040	66.171
155.202	546.900	6795.078	1093.937	15500.626	64.921
156.068	549.600	6777.882	1071.175	15467.104	64.960
156.934	552.200	6687.801	1042.193	15377.503	65.989
157.802	554.800	6548.063	1125.721	15495.035	67.509
158.668	557.500	6478.708	1094.324	15552.884	65.105
159.529	560.100	6549.982	1149.156	15692.017	67.651
160.394	562.800	6435.749	1116.236	15522.915	68.573
161.262	565.400	6269.344	1106.080	15459.997	68.316
162.129	567.700	6298.719	1104.790	15492.411	68.516
162.996	570.300	6284.783	1101.472	15437.657	67.350
163.863	573.000	6133.146	1102.992	15355.456	72.609
164.730	575.600	6106.600	1109.681	15343.229	69.982
165.596	578.200	6184.598	1089.170	15373.261	70.659
166.461	580.900	6176.540	1083.222	15308.764	72.521
167.326	583.500	6056.877	1064.111	15180.788	71.580
168.218	586.200	6034.568	1042.417	15107.490	71.354
169.086	588.800	6155.782	1058.400	15262.798	71.717
169.952	591.400	6210.477	1086.855	15359.697	73.766
170.820	593.800	6207.953	1128.436	15487.151	73.661
171.688	596.400	6205.033	1121.131	15537.918	76.710
172.582	599.000	6317.909	1111.557	15496.550	73.659
173.449	601.700	6364.578	1105.664	15475.981	76.401
174.317	604.300	6260.093	1101.736	15519.068	74.649
175.185	606.900	6335.679	1124.745	15602.467	76.248
176.053	609.600	6392.683	1075.369	15427.786	76.025
176.921	612.200	6401.018	1078.950	15265.982	78.880
177.787	614.800	6252.234	1051.126	15307.949	79.426
178.653	617.500	6315.715	1098.843	15516.101	78.945
179.553	620.100	6465.168	1085.709	15512.687	79.184
180.416	622.800	6470.237	1097.095	15411.496	83.276
181.306	625.400	6359.161	1102.692	15465.639	81.682
182.173	628.000	6411.458	1125.452	15632.130	82.824
183.039	630.700	6511.568	1109.799	15600.238	81.583
183.904	633.000	6503.429	1113.039	15587.030	84.869
184.773	635.600	6422.124	1130.190	15566.040	85.466
185.640	638.200	6487.722	1126.546	15775.377	85.069
186.539	640.900	6623.833	1126.247	15783.617	83.497
187.405	643.600	6611.377	1122.553	15660.443	87.060
188.271	646.200	6487.851	1103.445	15627.443	88.886
189.138	648.800	6558.680	1117.458	15787.680	86.769
190.004	651.500	6691.654	1142.275	15897.927	90.285
190.872	654.100	6582.440	1129.942	15795.615	89.212
191.741	656.700	6590.647	1140.151	15744.389	91.623
192.612	659.400	6620.277	1080.303	15725.781	91.646
193.480	661.700	6600.913	1089.947	15783.452	89.787
194.347	664.300	6510.005	1100.995	15712.510	93.191
195.214	666.900	6470.555	1106.160	15771.390	91.869
196.081	669.600	6605.479	1097.686	15891.610	93.200
196.947	672.300	6596.725	1101.077	15772.651	95.254
197.815	674.900	6427.991	1086.492	15755.508	98.788
198.681	677.500	6470.385	1104.195	15879.943	93.901
199.547	680.100	6538.922	1102.673	15903.633	96.422
200.414	682.800	6537.927	1108.917	15825.660	98.235
201.282	685.100	6396.990	1119.451	15846.191	98.301
202.150	687.700	6340.547	1084.717	15815.407	99.736
203.009	690.400	6315.092	1100.109	15887.381	100.208
203.870	693.000	6210.539	1127.486	15844.994	102.086
204.736	695.600	6091.930	1115.529	15816.872	97.937
205.641	698.300	6058.669	1121.015	15944.593	100.485
206.508	700.900	6070.407	1166.837	16061.960	104.045
207.374	703.600	5850.325	1134.765	15897.010	104.770
208.241	706.200	5688.290	1119.270	15860.163	106.022
209.144	708.800	5656.156	1171.919	16089.203	105.570
210.048	711.400	5632.666	1175.870	16103.875	109.580
210.912	714.100	5487.121	1163.602	16051.898	112.502
211.782	716.700	5325.964	1176.250	15997.093	110.883
212.650	719.300	5277.950	1181.439	16068.162	109.624
213.516	722.000	5266.897	1170.288	16100.882	109.360
214.382	724.300	5149.830	1167.061	15985.846	111.500
215.250	726.900	5057.178	1148.717	15977.237	112.283
216.116	729.500	5083.090	1157.775	16184.077	111.403
216.983	732.200	5103.878	1175.486	16204.162	114.385
217.852	734.800	4963.053	1169.650	16113.007	118.268
218.720	737.500	4925.385	1175.490	16211.473	116.161
219.586	740.100	4990.631	1198.260	16318.548	115.042
220.454	742.700	4996.648	1205.214	16334.953	119.493
221.320	745.400	4927.643	1227.671	16381.300	123.620
222.186	747.700	4906.025	1217.756	16507.582	120.178
223.055	750.300	5015.001	1249.402	16547.486	121.772
223.921	753.000	4971.701	1239.119	16458.534	126.245
224.788	755.600	4913.722	1253.941	16589.096	126.855
225.656	758.200	4919.242	1231.854	16666.686	124.848
226.523	760.900	4979.628	1233.415	16649.123	123.375
227.421	763.500	4965.549	1208.131	16582.626	131.074
228.289	766.100	4865.643	1205.510	16561.929	131.060
229.189	768.800	4902.681	1204.705	16675.818	125.979
230.053	771.400	4990.192	1237.601	16885.447	130.142
230.919	774.000	5015.359	1299.181	16964.222	136.861
231.788	776.700	4923.256	1283.123	16927.987	136.568
232.656	779.300	4952.795	1295.609	17096.809	134.360
233.520	781.600	5000.010	1303.928	17169.840	136.662
234.382	784.300	4984.198	1308.684	17141.667	139.337
235.248	786.900	4914.647	1289.677	17106.947	138.982
236.114	789.500	5036.309	1313.680	17321.072	139.677
