Wed, Oct 11, 2017	1:44 PM
 Notes: GUA_9.4e-10_30s_0.01L_101117
 waiting time: 50.000
 time(s)	 temp (K)	 MS1=2.071	 MS2=27.907	 MS3=78.871	 MS4=125.586	 MS5=78.871	 MS6=78.871	 MS7=109.505	 MS8=125.586
0.000	98.700	3136.083	9037.642	3.820	15.961
1.032	98.700	3184.879	9018.168	3.635	15.776
1.888	98.700	3271.291	8963.898	3.874	16.311
2.795	98.700	3321.713	9035.120	3.498	16.101
3.672	98.700	3186.096	9124.721	3.966	16.848
4.546	98.700	3248.758	9082.946	3.685	16.248
5.433	98.700	3308.546	9031.414	3.770	16.179
6.341	98.700	3301.992	9022.066	3.591	16.199
7.228	98.700	3166.112	9159.059	4.117	16.123
8.110	98.700	3215.444	9230.077	4.312	16.222
8.985	98.800	3270.200	9392.365	4.142	16.486
9.850	99.100	3298.625	10423.635	4.043	16.336
10.741	99.700	3237.292	12992.692	3.726	16.514
11.644	100.600	3243.436	12694.137	3.943	16.606
12.530	102.100	3273.657	12439.892	3.597	16.592
13.422	104.200	3389.705	13003.505	3.939	16.705
14.288	107.000	3417.586	13343.874	3.306	17.034
15.184	110.300	3318.572	13039.715	3.949	16.171
16.059	114.000	3348.890	12499.384	3.506	16.029
16.923	117.800	3456.147	11858.294	3.668	16.741
17.790	121.600	3431.826	11639.087	3.297	15.453
18.656	125.400	3333.262	11592.447	4.096	16.795
19.519	129.100	3378.297	11377.481	3.156	16.920
20.406	132.600	3412.757	11296.401	3.856	15.967
21.302	136.100	3458.748	11196.865	3.534	16.823
22.167	139.500	3322.308	11217.995	3.680	16.536
23.032	142.800	3321.532	11006.455	4.071	16.645
23.897	146.100	3420.647	10887.726	3.440	16.793
24.864	149.300	3409.514	10726.534	3.840	16.525
25.728	152.500	3275.094	10763.075	3.587	17.272
26.592	155.600	3283.417	10688.617	3.757	17.675
27.476	158.700	3342.794	10550.452	3.997	16.136
28.369	161.700	3354.601	10419.267	4.341	16.904
29.249	164.600	3279.201	10498.042	4.370	17.338
30.114	167.500	3238.585	10495.647	4.159	17.855
30.977	170.400	3298.571	10277.625	4.096	16.789
31.842	173.200	3325.771	10219.750	3.488	18.367
32.726	176.000	3231.734	10336.480	4.103	20.006
33.617	178.800	3293.201	10358.387	3.800	21.850
34.478	181.600	3342.213	10193.857	4.364	25.338
35.342	184.300	3393.736	10200.493	4.697	34.412
36.223	187.100	3307.786	10314.815	5.069	49.618
37.102	189.800	3338.488	10275.345	4.644	71.115
37.968	192.200	3443.827	10072.351	6.517	93.508
38.865	195.200	3518.760	10050.241	6.707	103.047
39.729	197.600	3488.824	10156.679	6.871	85.936
40.598	200.200	3541.122	10117.069	6.045	84.282
41.503	203.300	3630.325	9899.301	5.606	89.714
42.367	205.600	3759.270	9913.528	6.820	98.552
43.231	208.300	3716.679	10083.827	6.677	108.591
44.095	210.900	3761.665	10049.566	7.932	126.046
45.013	213.900	3818.479	9896.550	7.951	138.719
45.907	216.600	3951.315	9867.460	8.067	149.280
46.768	218.900	3943.603	9995.831	8.774	161.703
47.634	221.500	3878.957	9966.168	8.269	171.827
48.497	224.200	3972.241	9881.101	8.474	174.043
49.361	226.800	4019.822	9829.760	9.143	168.173
50.239	229.500	3959.394	9978.229	8.584	158.027
51.102	232.100	3906.814	9925.016	8.394	136.238
51.981	234.800	3976.708	9757.061	7.738	117.274
52.847	237.400	3983.389	9757.022	6.627	97.887
53.707	240.100	3830.635	9833.441	5.985	87.470
54.564	242.400	3815.096	9856.227	6.260	79.311
55.472	245.300	3881.103	9706.128	5.579	69.089
56.336	247.600	3850.961	9707.070	5.238	63.089
57.198	250.300	3693.320	9804.364	5.586	57.785
58.063	252.900	3721.691	9839.122	5.838	55.650
58.926	255.600	3783.818	9704.841	5.165	54.782
59.794	258.200	3800.920	9773.580	5.826	52.387
60.682	260.800	3681.896	9885.801	4.863	48.798
61.550	263.500	3681.877	9838.994	5.344	50.244
62.436	266.100	3824.142	9711.006	4.980	48.293
63.300	268.800	3835.035	9799.957	5.343	47.619
64.185	271.400	3779.260	9881.368	4.696	46.955
65.061	274.000	3816.237	9870.479	5.414	47.918
65.925	276.700	3951.492	9724.735	4.602	48.465
66.817	279.300	3981.495	9723.131	5.102	48.416
67.683	282.000	3927.737	9849.387	5.049	49.350
68.569	284.600	3988.924	9876.528	4.496	49.123
69.453	287.300	4125.333	9780.177	5.201	49.752
70.317	289.900	4187.649	9757.672	5.348	50.585
71.182	292.200	4104.057	9883.279	5.218	51.581
72.068	295.200	4182.865	9943.943	5.307	52.526
72.935	297.500	4343.950	9826.232	5.937	53.768
73.804	300.100	4438.983	9866.530	5.759	54.536
74.694	302.700	4389.411	9977.363	5.140	55.721
75.584	305.400	4583.662	9934.810	5.526	56.985
76.448	308.000	4808.376	9784.355	5.464	56.431
77.313	310.700	5004.361	9837.873	5.772	57.437
78.175	313.300	5044.637	9950.311	5.420	60.046
79.038	316.000	5335.223	9875.280	6.052	60.313
79.906	318.600	5772.627	9794.366	5.878	60.512
80.822	321.200	6155.130	9822.500	5.464	62.140
81.686	323.800	6257.392	9977.516	5.293	60.400
82.577	326.500	6532.453	9941.663	5.365	60.322
83.445	329.100	6845.595	9779.910	6.425	57.088
84.308	331.800	6962.969	9850.266	5.975	54.803
85.170	334.400	6689.016	9979.681	6.272	51.166
86.038	337.100	6638.661	9959.889	6.317	48.636
86.904	339.400	6568.063	9938.759	7.041	42.830
87.770	342.000	6331.694	10120.928	7.675	42.019
88.655	344.600	5819.565	10119.667	7.356	38.002
89.541	347.300	5573.541	10107.670	7.500	37.532
90.407	349.900	5409.935	10052.954	7.361	35.191
91.300	352.500	5261.806	10127.819	8.592	34.145
92.164	355.200	5018.698	10298.793	8.422	34.221
93.028	357.800	4991.198	10239.466	9.570	34.902
93.893	360.500	5118.816	10169.467	8.795	34.162
94.799	363.100	5214.707	10115.159	10.236	31.831
95.682	365.800	5173.144	10178.166	11.799	32.898
96.571	368.400	5433.206	10186.088	10.734	33.150
97.435	371.000	5827.439	10021.902	10.930	31.205
98.323	373.700	6187.145	10005.842	11.048	34.028
99.189	376.300	6292.105	10097.035	11.226	34.079
100.058	378.900	6474.328	10184.483	10.921	31.389
100.925	381.600	6769.300	10075.052	11.561	31.836
101.793	384.200	6880.521	10188.508	11.111	32.192
102.676	386.800	6731.058	10368.321	11.187	32.363
103.550	389.500	6839.324	10461.819	12.731	32.080
104.412	392.100	7038.178	10591.744	12.412	32.519
105.316	394.800	7061.961	10798.584	12.018	31.799
106.184	397.400	6793.308	11272.367	13.066	30.265
107.090	400.000	6863.803	11678.023	11.680	31.179
107.958	402.700	6843.527	11839.164	11.644	31.998
108.827	405.300	6669.058	12354.901	10.924	32.604
109.692	407.900	6271.995	13094.316	10.359	31.379
110.557	410.200	6062.243	13527.381	10.043	30.993
111.439	412.900	5992.390	13836.482	9.034	31.242
112.304	415.500	5744.122	14280.461	8.779	30.125
113.170	418.100	5335.728	14832.204	8.581	31.239
114.040	420.800	5120.299	15007.241	8.207	32.274
114.905	423.400	5058.162	15030.587	7.825	30.622
115.768	426.000	4937.525	15408.745	6.997	31.608
116.632	428.700	4676.851	15565.251	6.787	31.306
117.498	431.300	4619.355	15592.023	7.073	33.027
118.361	433.600	4617.999	15680.554	7.341	30.473
119.229	436.200	4427.945	16135.678	6.873	31.702
120.094	438.900	4378.120	16276.314	5.677	31.514
120.961	441.500	4491.436	16148.707	6.018	31.971
121.827	444.200	4437.610	16376.524	5.982	30.867
122.729	446.800	4355.813	16659.847	6.253	29.765
123.595	449.500	4231.829	16765.330	5.846	31.230
124.458	452.100	4390.754	16563.903	6.100	31.878
125.312	454.800	4378.842	16818.810	5.656	32.051
126.175	457.100	4245.004	16938.202	5.509	30.972
127.041	459.700	4284.067	16899.228	5.524	30.797
127.920	462.300	4338.465	16875.984	5.630	30.825
128.787	465.000	4330.068	16966.387	5.406	29.752
129.653	467.600	4255.026	17207.578	5.978	29.655
130.517	470.300	4273.064	17041.673	5.838	30.822
131.379	472.900	4394.695	17077.653	5.954	31.428
132.246	475.600	4377.828	17233.267	5.595	31.547
133.207	478.200	4325.964	17061.249	5.383	30.812
134.074	480.800	4359.230	17021.371	5.379	32.142
134.940	483.500	4475.009	16605.857	5.880	31.826
135.806	486.100	4560.697	16364.794	5.349	31.391
136.740	488.700	4473.455	16206.620	5.590	30.910
137.636	491.700	4500.443	15949.115	5.579	30.797
138.502	494.300	4541.936	15372.752	5.181	31.288
139.369	496.600	4645.942	14895.517	4.921	30.707
140.235	499.300	4556.183	14689.454	6.317	31.293
141.101	501.900	4562.980	14140.208	5.476	31.363
141.965	504.600	4713.348	13458.591	5.490	31.390
142.914	507.500	4736.652	12952.483	5.822	31.181
143.780	510.200	4701.939	12524.691	5.194	30.594
144.644	512.500	4600.270	12219.424	5.370	30.129
145.570	515.400	4559.166	11730.280	6.313	31.554
146.436	518.100	4733.668	11337.679	5.555	32.810
147.301	520.700	4746.430	11071.742	5.757	32.004
148.168	523.000	4635.583	10956.070	5.527	32.134
149.034	525.700	4583.989	10761.228	6.277	31.339
149.902	528.300	4754.421	10562.399	6.428	31.654
150.766	531.000	4696.691	10575.772	6.181	31.516
151.630	533.600	4590.508	10537.346	6.094	31.981
152.495	536.200	4634.181	10289.839	6.041	32.396
153.358	538.900	4671.659	10282.961	5.662	31.137
154.224	541.200	4466.827	10346.860	5.513	31.129
155.124	544.200	4479.269	10258.507	6.086	31.537
155.989	546.500	4428.761	10102.333	6.490	32.163
156.854	549.100	4505.334	10126.239	5.193	33.760
157.717	551.700	4277.376	10182.089	5.338	33.349
158.581	554.300	4283.498	10141.498	6.961	32.474
159.449	557.000	4328.895	10018.476	6.137	33.118
160.317	559.600	4287.641	9978.204	6.191	32.640
161.185	562.300	4086.384	10042.459	6.126	32.055
162.089	564.900	4118.514	9993.513	6.687	31.954
162.957	567.500	4124.747	9866.645	6.066	32.171
163.823	570.200	4108.026	9878.222	6.665	33.337
164.736	572.800	4027.452	10019.622	6.249	33.517
165.601	575.500	3962.463	10019.724	6.240	33.278
166.466	578.100	4052.530	9947.037	6.198	33.963
167.332	580.700	4028.135	9908.701	6.084	32.687
168.226	583.400	3915.684	10050.674	6.127	34.091
169.092	586.000	3945.791	10125.411	6.274	34.752
169.958	588.600	4032.361	9979.503	5.362	34.356
170.825	590.900	4065.923	9989.348	6.480	34.945
171.690	593.600	3934.090	10102.855	6.249	34.174
172.555	596.200	3974.318	10126.825	6.506	35.234
173.420	598.900	4083.961	9934.492	6.341	35.126
174.287	601.500	4094.857	10031.709	6.581	34.838
175.154	604.100	3986.945	10046.140	6.317	35.309
176.018	606.800	3997.444	9948.591	6.408	34.763
176.883	609.100	4140.259	9953.775	6.659	36.964
177.751	611.700	4133.574	10070.517	6.029	35.168
178.616	614.400	4023.388	10124.800	6.643	36.401
179.522	617.000	4061.650	10019.177	6.570	35.564
180.387	619.600	4135.099	9957.163	6.145	36.271
181.253	622.300	4124.854	10055.476	7.290	35.322
182.120	624.900	4004.421	10031.047	6.387	36.579
183.035	627.500	4070.757	10014.693	6.406	36.986
183.921	630.200	4172.140	9930.722	6.277	36.790
184.788	632.800	4197.872	10020.934	6.956	35.705
185.645	635.500	4094.432	10209.128	7.087	37.384
186.508	638.100	4077.257	10050.559	6.991	36.367
187.375	640.800	4180.907	10041.682	6.419	36.546
188.243	643.400	4157.248	10159.634	6.686	36.415
189.120	646.100	4092.976	10165.569	6.901	35.806
189.989	648.700	4205.456	9987.539	7.003	35.726
190.895	651.400	4236.720	9966.473	6.781	37.287
191.760	654.000	4220.612	10071.103	7.219	37.048
192.628	656.600	4124.214	10103.059	6.840	37.163
193.495	659.200	4173.504	10012.630	6.770	38.708
194.385	661.900	4257.287	10011.229	6.537	36.362
195.252	664.200	4232.629	10168.270	7.383	39.150
196.115	666.800	4131.405	10198.480	6.396	37.860
196.982	669.400	4263.762	10090.870	6.929	37.500
197.845	672.100	4248.891	10103.479	6.232	37.951
198.710	674.700	4112.184	10241.759	6.734	39.268
199.574	677.300	4071.779	10217.101	7.047	39.476
200.443	680.000	4215.054	10031.366	6.893	37.963
201.308	682.600	4180.981	10042.968	5.947	40.104
202.177	684.900	4087.800	10143.446	6.599	39.669
203.042	687.500	4065.520	10148.286	7.049	38.945
203.908	690.100	4140.926	10069.358	6.212	39.154
204.773	692.800	4077.966	10107.950	6.944	40.108
205.640	695.400	3963.831	10144.491	6.676	38.533
206.506	698.100	3923.241	10042.128	7.024	40.629
207.373	700.700	3967.569	10053.310	6.913	39.173
208.250	703.300	3807.896	10221.317	6.816	38.877
209.118	706.000	3706.934	10200.671	7.053	38.568
209.984	708.300	3690.116	10077.433	7.287	38.919
210.853	710.900	3669.715	10093.188	7.039	39.517
211.717	713.600	3456.411	10202.569	5.986	40.135
212.588	716.200	3423.728	10215.586	6.422	41.196
213.476	718.800	3436.928	10088.756	6.623	42.452
214.341	721.500	3421.592	10078.490	7.307	40.271
215.246	724.100	3389.924	10246.000	7.064	41.951
216.113	726.800	3265.325	10203.384	6.726	42.328
216.979	729.400	3311.730	10098.690	7.440	41.968
217.848	732.000	3327.041	10047.936	7.691	41.098
218.714	734.700	3192.704	10161.290	7.572	41.218
219.581	737.300	3193.933	10225.100	6.828	42.617
220.447	740.000	3263.151	10094.755	7.420	42.360
221.312	742.300	3263.086	10093.239	6.783	43.700
222.179	744.900	3164.681	10212.694	6.967	43.143
223.079	747.500	3179.980	10226.055	6.918	43.105
223.945	750.200	3238.573	10166.359	7.218	43.714
224.872	753.100	3256.246	10178.319	7.059	42.978
225.735	755.800	3172.638	10371.658	7.631	42.845
226.645	758.400	3176.854	10369.200	7.541	44.242
227.509	761.000	3131.853	10259.042	7.145	44.952
228.376	763.700	3237.910	10295.035	7.128	44.836
229.238	766.000	3161.088	10401.512	7.868	44.802
230.106	768.600	3114.426	10462.367	6.913	45.665
230.971	771.200	3191.787	10348.210	6.917	43.623
231.837	773.900	3208.897	10349.993	7.489	45.535
232.702	776.500	3123.595	10500.016	8.029	44.991
233.566	779.200	3165.986	10544.581	6.976	47.076
234.430	781.800	3216.344	10403.053	7.095	45.273
235.295	784.400	3221.370	10462.405	7.738	46.758
236.161	786.700	3130.299	10605.958	7.261	46.019
237.029	789.400	3139.062	10572.563	8.104	45.297
237.925	792.000	3224.861	10529.182	7.741	45.655
238.793	794.600	3215.506	10597.615	6.787	48.205
239.655	797.300	3088.264	10773.735	7.680	45.729
240.522	799.900	3118.491	10709.925	6.687	47.481
