Wed, Oct 11, 2017	1:12 PM
 Notes: GUA_6.6e-10_30s_0.0025L_101117
 waiting time: 50.000
 time(s)	 temp (K)	 MS1=2.071	 MS2=27.907	 MS3=78.871	 MS4=125.586	 MS5=78.871	 MS6=78.871	 MS7=109.505	 MS8=125.586
0.000	99.400	3398.044	9502.000	3.704	11.317
1.249	99.400	3305.511	9578.063	3.431	11.612
2.105	99.400	3372.087	9480.807	3.446	12.075
2.980	99.500	3422.110	9540.235	3.885	11.963
3.895	99.400	3416.036	9616.756	4.340	11.627
4.761	99.400	3306.005	9732.798	3.558	12.177
5.640	99.400	3285.558	9673.560	3.283	12.296
6.522	99.400	3420.308	9624.028	3.766	11.776
7.416	99.400	3403.589	9626.397	3.824	11.957
8.295	99.400	3306.173	9705.351	3.867	11.789
9.192	99.400	3301.989	9697.365	3.813	12.006
10.109	99.500	3384.442	9598.505	3.512	11.907
10.992	99.600	3383.873	10002.110	3.841	12.438
11.912	100.000	3439.212	11480.442	3.718	11.506
12.797	100.700	3331.497	13564.902	3.729	12.443
13.678	102.000	3341.271	12799.811	3.625	12.597
14.578	103.800	3460.557	12860.602	3.550	12.492
15.470	106.400	3515.684	13280.421	3.355	11.893
16.334	109.400	3387.596	13556.853	3.462	12.383
17.211	113.000	3453.218	13058.501	3.472	12.566
18.121	116.800	3463.149	12397.161	3.516	12.958
18.999	120.600	3568.037	12046.947	3.688	12.273
19.927	124.800	3501.075	11791.848	4.215	12.655
20.793	128.400	3391.213	11731.503	3.405	12.406
21.680	132.000	3384.262	11742.431	4.234	11.995
22.575	135.400	3541.056	11500.859	3.540	12.215
23.438	138.800	3522.928	11420.135	3.607	11.994
24.336	142.100	3420.493	11465.655	4.012	12.429
25.200	145.400	3370.102	11326.484	3.724	12.534
26.069	148.600	3494.339	10980.982	3.893	12.448
26.968	151.800	3482.809	10857.044	3.962	12.094
27.883	154.900	3472.903	10860.343	4.253	12.182
28.774	158.000	3336.388	10755.407	3.774	13.018
29.701	161.400	3356.569	10576.829	4.202	12.456
30.608	164.300	3367.471	10490.998	4.167	12.262
31.474	167.300	3453.084	10519.248	3.431	12.210
32.332	169.800	3340.640	10558.998	3.756	12.059
33.229	173.000	3371.124	10566.386	3.230	12.590
34.093	175.400	3393.113	10387.846	4.276	12.657
34.952	178.200	3409.500	10371.225	3.863	13.079
35.815	181.000	3309.234	10529.144	4.101	12.712
36.708	183.800	3332.940	10541.753	3.883	12.660
37.563	186.500	3384.055	10333.232	3.317	13.357
38.442	189.200	3383.091	10243.453	3.281	13.320
39.306	191.900	3300.133	10412.122	4.077	13.881
40.172	194.600	3305.971	10331.373	3.896	13.414
41.034	197.300	3476.605	10141.281	3.892	13.599
41.901	199.700	3491.229	10205.103	4.116	14.914
42.764	202.400	3385.171	10275.409	3.682	15.226
43.627	205.000	3468.359	10120.750	3.836	16.314
44.520	207.700	3562.743	10049.107	3.864	18.354
45.424	210.700	3604.179	10068.008	4.250	20.490
46.289	213.000	3510.364	10140.848	3.972	22.802
47.152	215.700	3555.048	10008.478	3.965	24.635
48.051	218.300	3684.500	10003.511	4.265	27.528
48.916	221.000	3698.104	10080.070	4.546	31.005
49.780	223.600	3568.532	10158.042	5.188	32.820
50.674	226.300	3662.856	10107.109	4.475	34.609
51.537	228.900	3756.623	10009.140	4.443	34.118
52.413	231.600	3827.598	9991.462	4.318	33.190
53.309	234.200	3698.648	10129.462	4.471	31.903
54.202	236.800	3753.824	10141.307	4.788	31.126
55.097	239.500	3832.023	9952.094	4.333	28.580
56.003	242.500	3890.873	9927.691	4.632	27.224
56.868	245.100	3783.865	10091.634	4.224	25.331
57.734	247.400	3709.916	10040.854	3.692	24.263
58.595	250.100	3778.979	9884.769	4.761	23.872
59.460	252.700	3795.630	9888.208	3.986	23.685
60.323	255.300	3683.192	9995.360	4.828	22.560
61.189	258.000	3709.511	10001.142	4.010	21.675
62.088	260.600	3810.919	9882.578	3.769	21.912
62.953	263.300	3803.079	9854.953	4.105	21.392
63.893	265.900	3811.740	9963.085	4.205	21.645
64.760	268.500	3755.348	10022.909	4.351	21.480
65.625	271.100	3747.161	9893.837	4.505	22.583
66.527	273.800	3887.373	9859.105	3.918	22.908
67.394	276.400	3886.369	9973.555	4.259	22.687
68.260	279.100	3842.613	10019.279	3.873	23.593
69.146	281.700	3812.523	9911.363	4.557	21.750
70.011	284.400	3989.124	9892.220	3.991	23.250
70.875	287.000	4012.693	10023.749	4.082	23.561
71.740	289.700	3933.478	10068.276	4.429	24.900
72.619	292.300	4017.943	9927.360	3.833	24.115
73.527	295.000	4251.339	9933.397	4.581	25.736
74.436	297.600	4329.598	9919.896	4.116	26.116
75.335	300.200	4320.964	10046.598	5.174	27.298
76.202	302.900	4379.418	10065.525	5.158	28.684
77.085	305.500	4714.296	9859.003	4.406	29.510
77.952	308.100	4856.296	9963.709	4.570	30.698
78.819	310.800	4872.979	10067.117	4.131	30.881
79.683	313.400	5015.776	10054.317	5.115	31.305
80.550	316.000	5431.586	9931.028	4.550	31.018
81.451	318.700	5579.269	9953.062	4.014	30.711
82.318	321.300	5580.770	10087.699	4.379	31.929
83.183	323.900	5574.598	10100.932	4.478	30.599
84.052	326.600	5822.501	9945.917	4.530	29.471
84.918	329.200	5819.774	9951.355	4.251	29.601
85.832	331.900	5667.008	10105.046	4.629	29.550
86.701	334.500	5501.349	10133.486	4.664	28.187
87.598	337.100	5547.991	9960.742	4.495	25.643
88.495	339.800	5372.024	9926.927	4.336	23.692
89.390	342.400	5263.483	10068.607	5.312	21.932
90.299	345.400	4897.035	10138.186	5.548	21.521
91.199	348.000	4789.452	10159.736	5.918	21.019
92.102	350.700	4746.825	10028.793	5.837	20.232
93.007	353.300	4692.152	10040.599	5.788	20.768
93.873	355.900	4595.590	10246.306	5.256	20.065
94.773	358.600	4557.900	10281.013	6.719	20.761
95.639	361.200	4427.693	10166.041	6.731	20.075
96.508	363.900	4586.387	10067.779	5.673	19.889
97.371	366.500	4699.650	10310.561	6.597	20.691
98.232	369.100	4684.119	10277.268	6.617	19.652
99.114	371.800	4877.632	10160.832	7.135	19.602
99.979	374.400	5204.333	10144.682	7.733	19.447
100.845	376.700	5243.122	10312.319	6.522	19.588
101.710	379.400	5400.825	10337.461	7.498	19.166
102.577	382.000	5742.606	10267.716	6.786	19.423
103.444	384.600	5937.875	10344.950	6.845	19.795
104.334	387.300	5920.550	10641.989	6.347	19.134
105.224	389.900	6023.819	10850.574	7.271	19.541
106.135	392.600	6129.262	11062.330	7.217	20.118
107.003	395.200	6422.014	11255.134	7.476	19.681
107.870	397.800	6298.342	11770.209	6.456	19.674
108.736	400.500	6211.491	12299.281	6.412	20.871
109.597	403.100	6147.769	12508.465	5.868	19.285
110.463	405.700	6030.188	12947.261	6.011	19.498
111.344	408.400	5619.313	13518.758	5.752	21.114
112.211	411.000	5367.932	13921.739	5.803	20.591
113.113	413.700	5157.048	13965.400	5.379	20.062
113.977	416.300	5034.658	14149.862	5.558	19.963
114.841	418.900	4708.288	14498.751	5.095	20.201
115.710	421.500	4499.530	14486.473	5.774	19.557
116.576	423.900	4513.443	14308.316	5.125	20.926
117.443	426.500	4436.230	14253.014	5.503	20.988
118.308	429.100	4179.855	14483.060	4.532	20.002
119.174	431.700	4160.900	14456.199	4.606	21.417
120.038	434.400	4254.791	14194.872	5.143	19.768
120.921	437.000	4185.903	14233.591	5.487	19.670
121.784	439.700	4036.425	14476.068	4.738	19.874
122.653	442.300	4022.579	14409.342	4.661	19.808
123.561	444.900	4096.817	14309.628	4.597	19.399
124.422	447.600	4103.606	14363.872	4.076	21.863
125.286	450.200	3956.699	14602.388	4.725	20.825
126.152	452.600	3899.493	14556.257	4.398	21.552
127.020	455.200	3996.765	14450.786	5.036	20.851
127.888	457.800	3997.213	14607.419	4.708	20.884
128.781	460.500	3837.748	14735.968	4.141	20.362
129.661	463.100	3890.008	14732.567	4.842	20.109
130.542	465.700	3976.802	14552.423	4.633	21.002
131.443	468.700	4026.407	14619.047	4.228	20.219
132.307	471.000	3904.208	14807.024	5.085	21.552
133.175	473.700	3884.684	14704.254	4.256	20.304
134.041	476.300	4037.602	14464.312	5.106	19.948
134.907	478.900	4035.586	14331.586	4.624	20.761
135.773	481.600	3971.687	14465.484	4.587	21.573
136.710	484.200	4022.589	14330.325	4.285	21.538
137.803	487.500	3968.751	14113.856	5.076	21.784
138.744	490.500	4046.333	13864.604	5.218	21.849
139.603	493.100	4111.906	13557.566	4.746	22.667
140.477	495.800	4192.082	13314.223	4.621	21.737
141.350	498.400	4085.977	13176.441	4.965	22.291
142.241	501.000	4105.676	12851.839	4.738	23.416
143.107	503.700	4137.261	12403.771	4.717	21.923
143.972	506.300	4226.166	12035.650	4.825	22.185
144.838	508.600	4150.262	11999.478	5.094	22.858
145.703	511.300	4139.948	11687.257	4.751	22.262
146.571	513.900	4277.394	11250.906	5.756	22.163
147.576	516.900	4268.367	10986.128	4.661	21.302
148.439	519.500	4282.018	10843.785	4.554	21.736
149.304	522.100	4140.570	10768.246	5.124	22.523
150.307	525.100	4080.265	10640.652	4.941	22.464
151.173	527.800	4081.278	10523.502	4.996	22.564
152.038	530.400	4260.908	10345.956	4.650	22.226
152.905	533.000	4234.691	10268.391	4.779	22.978
153.770	535.700	4168.536	10361.405	4.792	22.322
154.633	538.000	4081.934	10176.192	4.648	21.794
155.502	540.600	4196.112	10135.371	4.434	21.955
156.379	543.200	4142.518	10213.318	5.236	22.715
157.269	545.900	4042.974	10221.559	4.513	22.241
158.163	548.900	3991.269	10217.178	4.815	22.298
159.024	551.200	4059.777	10142.797	4.153	22.798
159.888	553.800	4047.526	10224.068	5.606	23.161
160.755	556.400	3935.303	10218.235	5.386	24.007
161.617	559.100	3858.130	10036.778	5.151	23.166
162.516	561.700	3933.518	10097.340	5.311	23.679
163.397	564.300	3904.361	10135.868	4.920	22.720
164.291	567.000	3775.963	10144.873	4.715	22.951
165.170	569.600	3716.056	10140.581	5.062	23.493
166.073	572.300	3837.570	10033.671	4.843	24.174
166.940	574.900	3782.669	9973.631	4.946	24.649
167.806	577.500	3665.941	10087.597	4.637	24.176
168.671	580.200	3688.116	10100.715	4.814	24.607
169.533	582.800	3778.246	9958.016	5.168	23.746
170.400	585.500	3795.748	9989.781	4.899	23.547
171.265	588.100	3703.343	10103.505	5.179	25.094
172.133	590.700	3668.995	9969.110	5.219	24.646
172.999	593.000	3801.669	9934.912	5.129	24.244
173.865	595.700	3777.581	10140.593	5.577	25.231
174.729	598.300	3712.820	10147.089	5.336	25.325
175.593	600.900	3779.900	9988.584	4.142	25.775
176.458	603.600	3812.171	10028.258	5.270	25.013
177.346	606.200	3719.402	10160.946	5.231	25.091
178.213	608.900	3696.533	10091.736	5.338	25.840
179.079	611.500	3809.296	10057.997	5.229	26.788
179.995	614.100	3828.231	9946.311	5.029	26.218
180.859	616.800	3757.987	10146.019	5.390	26.788
181.791	619.400	3743.850	10091.418	5.064	26.560
182.694	622.400	3679.543	10103.874	4.726	25.073
183.562	624.700	3842.772	9982.687	5.324	25.675
184.427	627.300	3840.653	9981.617	5.844	25.901
185.290	630.000	3727.980	10116.738	5.485	24.962
186.156	632.600	3719.843	10018.069	4.877	26.706
187.024	635.200	3881.182	9975.109	4.909	25.894
187.888	637.900	3874.872	10003.855	5.277	27.210
188.755	640.500	3806.913	10108.739	6.202	26.121
189.620	643.100	3797.068	9988.316	4.933	25.702
190.492	645.500	3864.461	9956.322	5.936	26.753
191.373	648.100	3851.933	10100.002	5.222	27.456
192.276	651.000	3823.963	10108.281	5.603	25.882
193.142	653.700	3786.873	10109.644	5.863	26.823
194.043	656.300	3931.809	10066.747	5.861	28.402
194.912	659.000	3897.254	10057.501	5.924	27.851
195.822	661.600	3858.827	10244.153	5.514	28.792
196.687	664.300	3771.545	10226.972	5.414	28.522
197.552	666.900	3890.730	10103.199	5.460	28.299
198.418	669.500	3892.887	10118.636	5.881	28.145
199.285	671.800	3791.275	10196.379	5.280	27.462
200.153	674.500	3735.906	10184.572	5.841	28.072
201.020	677.200	3898.111	10027.455	5.187	28.220
201.885	679.800	3873.126	10154.922	5.651	28.931
202.763	682.500	3766.257	10135.944	5.120	28.509
203.631	685.100	3702.814	10009.128	5.686	29.117
204.492	687.700	3842.398	9941.816	5.715	28.852
205.354	690.300	3735.926	10143.064	6.081	29.410
206.222	692.600	3644.170	10184.521	6.364	29.221
207.090	695.300	3687.776	9992.316	6.088	29.327
207.956	697.900	3672.770	10051.094	5.621	28.870
208.820	700.500	3547.217	10214.299	6.348	30.088
209.687	703.100	3452.287	10172.562	6.309	29.762
210.553	705.800	3568.600	10051.018	5.483	29.811
211.420	708.400	3497.010	10036.053	5.897	29.161
212.285	711.000	3326.591	10153.877	5.826	31.480
213.152	713.300	3319.065	10110.459	6.443	30.096
214.018	716.000	3400.985	9998.582	6.024	29.556
214.885	718.600	3341.205	10064.289	5.795	30.637
215.753	721.200	3218.241	10099.569	5.661	30.837
216.644	723.900	3237.347	10088.157	6.455	30.400
217.530	726.500	3265.410	10027.876	5.959	31.548
218.387	729.200	3275.212	10057.144	5.432	31.479
219.245	731.800	3141.124	10169.645	5.596	31.016
220.109	734.400	3166.053	9824.347	5.095	31.496
220.975	737.100	3145.730	9937.205	4.815	30.267
221.891	739.700	3172.793	9985.616	4.279	32.056
222.752	742.300	3073.017	10070.530	4.729	30.924
223.620	745.000	3076.592	9942.682	4.804	32.582
224.481	747.300	3147.688	9956.552	4.663	30.744
225.343	750.000	3055.526	10099.123	4.698	31.553
226.208	752.600	3041.548	10047.082	4.176	31.367
227.074	755.200	3149.820	9942.032	4.717	31.558
227.941	757.800	3119.402	9920.304	5.108	31.870
228.824	760.500	3062.389	10081.840	4.722	31.729
229.686	763.100	3034.112	10062.774	4.991	31.720
230.551	765.800	3112.761	9921.972	5.109	32.935
231.417	768.400	3128.354	10063.818	4.643	33.814
232.281	770.700	3025.361	10194.863	4.443	33.508
233.158	773.300	3013.767	10219.572	5.573	33.247
234.025	776.000	3123.222	10150.375	4.815	34.384
234.912	778.600	3114.472	10205.638	4.923	34.518
235.779	781.300	3015.163	10258.584	5.272	34.195
236.645	783.900	3004.550	10235.467	5.681	34.833
237.511	786.500	3107.928	10200.671	5.201	34.333
238.375	789.100	3106.783	10375.441	5.154	34.401
239.241	791.800	3380.125	10503.531	6.302	34.896
240.105	794.400	3084.226	10361.507	6.081	36.197
240.972	796.700	3184.594	10393.870	6.936	37.630
241.840	799.400	3092.427	10605.346	6.613	36.627
242.707	802.000	3077.458	10684.376	7.014	38.458
243.573	804.600	3162.647	10477.765	6.585	37.938
